# density (fm-3), kf, e, p, vs^2
0.01  0.5290434255797746  -1.139  -0.020524  -0.005816004113091787
0.01798  0.6432987752868107  -2.8233  -0.068623  -0.007719597474039512
0.02596  0.7270747695805602  -4.4879  -0.13725  -0.010384399040056549
0.033939  0.7950113198155646  -6.0614  -0.21917  -0.011660971526737684
0.041919  0.8529839891082667  -7.5204  -0.30798  -0.012252931729612877
0.049899  0.9039935520968146  -8.8575  -0.39804  -0.012092308878931056
0.057879  0.949816210530887  -10.072  -0.48441  -0.011299901748385865
0.065859  0.9915982355579944  -11.166  -0.56266  -0.009927945200070816
0.073838  1.0301228499416195  -12.144  -0.62879  -0.008025711356662291
0.081818  1.0659672121948995  -13.008  -0.67908  -0.005624011612799535
0.089798  1.0995502988414076  -13.764  -0.70999  -0.0027406849726309334
0.097778  1.1311981781226728  -14.415  -0.71804  0.0006201444965680459
0.10576  1.1611749505640034  -14.964  -0.69973  0.004466027713021945
0.11374  1.1896718880099133  -15.414  -0.65142  0.008815082059568288
0.12172  1.216865161657329  -15.768  -0.56928  0.013694213617434838
0.1297  1.242894355784347  -16.028  -0.44924  0.01913945595704468
0.13768  1.2678765765658322  -16.195  -0.28689  0.025187982772254935
0.14566  1.2919111475036404  -16.27  -0.07748  0.0318827624742442
0.15364  1.3150831234408404  -16.253  0.18412  0.03926518758034933
0.16162  1.3374659657463634  -16.145  0.5034  0.04737255972286723
0.1696  1.3591236100430009  -15.945  0.8862  0.056239003632136436
0.17758  1.3801120862382785  -15.653  1.3387  0.06588469390151062
0.18556  1.4004808033689293  -15.267  1.8672  0.07631935004873827
0.19354  1.4202735799111845  -14.787  2.4782  0.08753659949009318
0.20152  1.439529478303949  -14.211  3.1784  0.09951506269564724
0.20949  1.4582602864517786  -13.538  3.9742  0.11221196771153258
0.21747  1.476544453728075  -12.765  4.8718  0.12556024033834795
0.22545  1.4943866069553235  -11.893  5.8771  0.13949864791351757
0.23343  1.5118125279904142  -10.92  6.9956  0.15392397325264964
0.24141  1.52884567367695  -9.844  8.232  0.1687217923721601
0.24939  1.5455074547434773  -8.6653  9.5906  0.18378004824496938
0.25737  1.5618174734664758  -7.383  11.074  0.19897852376389466
0.26535  1.5777937272745863  -5.9971  12.686  0.2141990571926892
0.27333  1.5934527840448083  -4.5077  14.428  0.229328558029571
0.28131  1.6088099337320085  -2.9153  16.3  0.24424756113097404
0.28929  1.623879320102902  -1.2208  18.303  0.2588509742753755
0.29727  1.638674055657982  0.57449  20.435  0.2730733721600788
0.30525  1.6532063222775855  2.4691  22.696  0.28682867269126405
0.31323  1.6674874596898046  4.4612  25.084  0.3000471229740157
0.32121  1.6815280435044593  6.5487  27.597  0.3127053409871527
0.32919  1.6953379542706715  8.7291  30.231  0.32475165450939325
0.33717  1.7089264387817953  11.0  32.984  0.3361775218384233
0.34515  1.7223021646597763  13.359  35.852  0.34696689978690104
0.35313  1.7354732690930779  15.802  38.832  0.3571255451490962
0.36111  1.7484474024715384  18.327  41.919  0.3666609271295418
0.36909  1.761231767552767  20.931  45.112  0.3755876880403204
0.37707  1.7738331547038222  23.611  48.405  0.38391494520112285
0.38505  1.7862579736857187  26.364  51.795  0.3916693469479661
0.39303  1.7985122823841133  29.186  55.279  0.3988873733154758
0.40101  1.8106018128352859  32.074  58.853  0.405575322877307
0.40899  1.822531994850493  35.026  62.513  0.4117785376285672
0.41697  1.834307977502594  38.037  66.257  0.41751100550536585
0.42495  1.8459346487053832  41.107  70.081  0.4228057219363555
0.43293  1.85741665308738  44.23  73.983  0.42768551169821717
0.44091  1.8687584083371822  47.405  77.958  0.43218281507298806
0.44889  1.8799641201762407  50.629  82.005  0.4363264173391219
0.45687  1.8910377960965457  53.9  86.121  0.4401361178162715
0.46485  1.901983257984791  57.213  90.303  0.4436228623417112
0.47283  1.9128041537407496  60.568  94.549  0.4468223916504674
0.48081  1.9235039679855317  63.962  98.856  0.4497620289264826
0.48879  1.9340860319448698  67.392  103.22  0.4524416225589193
0.49677  1.9445535325833574  70.857  107.65  0.4548867263976185
0.50475  1.9549095210574736  74.353  112.13  0.4571149233245696
0.51273  1.9651569205481156  77.88  116.66  0.4591476855014424
0.52071  1.975298533527093  81.435  121.25  0.4609910642963797
0.52869  1.9853370485064954  85.016  125.88  0.4626717333901774
0.53667  1.9952750463149567  88.622  130.56  0.4641854882508167
0.54465  2.005115005940484  92.251  135.3  0.4655463113529218
0.55263  2.0148593099756735  95.9  140.07  0.46677748435987937
0.56061  2.024510249697695  99.57  144.89  0.4678757120907418
0.56859  2.034070029812376  103.26  149.76  0.46886028061325075
0.57657  2.043540772888967  106.96  154.66  0.46974024507024736
0.58455  2.052924523509762  110.68  159.61  0.4705092228322621
0.59253  2.06222325215651  114.42  164.59  0.4711890150918274
0.60051  2.071438858853635  118.16  169.62  0.4717756101693911
0.60848  2.0805617801980842  121.92  174.68  0.47228956756676393
0.61646  2.089616676690369  125.69  179.78  0.4727242164180691
0.62444  2.0985937596146838  129.47  184.91  0.47309239483581167
0.63242  2.107494679411354  133.26  190.08  0.4733890050775284
0.6404  2.1163210312141305  137.06  195.28  0.473636157623408
0.64838  2.1250743573669317  140.86  200.52  0.4738241027125673
0.65636  2.1337561497966124  144.67  205.79  0.47395509923362117
0.66434  2.1423678522516383  148.48  211.09  0.47404860675629007
0.67232  2.150910862415758  152.3  216.42  0.47409337213282726
0.6803  2.159386533905048  156.12  221.78  0.47409290650391533
0.68828  2.1677961781560544  159.95  227.17  0.4740595793874621
0.69626  2.1761410662121565  163.78  232.59  0.47398890972647645
0.70424  2.184422430414745  167.61  238.04  0.47388863380620916
0.71222  2.1926414660052935  171.44  243.52  0.4737510399954543
0.7202  2.2007993326439723  175.27  249.02  0.4735959314399736
0.72818  2.208897155850017  179.1  254.55  0.47341094032443654
0.73616  2.2169360283686963  182.93  260.11  0.47320359594107003
0.74414  2.2249170114693766  186.76  265.69  0.4729705889803809
0.75212  2.2328411361788465  190.59  271.3  0.472714978413073
0.7601  2.24070940445379  194.41  276.94  0.47244727099679346
0.76808  2.248522790296008  198.24  282.6  0.4721502996442007
0.77606  2.256282240813757  202.06  288.28  0.47185961868146836
0.78404  2.2639886772323226  205.88  293.99  0.47149448254700616
0.79202  2.2716429958567543  209.69  299.72  0.4713463624400236
0.8  2.279246068989485  213.5  305.47  0.47031518308209386
