# density (fm-3), kf, e, p, vs^2
0.01  0.5290434255797746  -1.18178  -0.0209832  0.00011874398643345205
0.015  0.6055953592088  -2.25561  -0.0488921  0.00011902828757841324
0.02  0.6665375477311392  -3.33934  -0.0860775  0.00041533671402486927
0.025  0.7180004669280444  -4.40053  -0.130496  0.0010410289615569808
0.03  0.762984711892096  -5.42372  -0.180201  0.0017982718042804102
0.035  0.8032101741137051  -6.40091  -0.233393  0.0026587542381361347
0.04  0.8397652840096557  -7.32806  -0.288444  0.0035983616617491824
0.045  0.8733876621994663  -8.20335  -0.343896  0.004596401590722024
0.05  0.9046030011082091  -9.02632  -0.39845  0.005635654691036927
0.055  0.9338007237309498  -9.79739  -0.450955  0.006702303439445878
0.06  0.9612782887597225  -10.5175  -0.500385  0.007785977894311629
0.065  0.9872686432337484  -11.1878  -0.545819  0.008879559433562218
0.07  1.0119580243904225  -11.8098  -0.586425  0.009978928966335215
0.075  1.0354979438542857  -12.3851  -0.621435  0.011082712916075271
0.08  1.0580135127095287  -12.9151  -0.650132  0.012191912504372248
0.085  1.0796093813128662  -13.4014  -0.671827  0.01330943645570011
0.09  1.100374075990257  -13.8455  -0.685846  0.01444027644195415
0.095  1.1203832294422698  -14.2486  -0.691519  0.015590177811403856
0.1  1.1397020298818086  -14.6121  -0.688164  0.01676646144445198
0.105  1.1583871070949272  -14.9371  -0.67508  0.017976916736105544
0.11  1.176488005276868  -15.2247  -0.65154  0.01922979640545044
0.115  1.1940483476721884  -15.4759  -0.616781  0.02053356163641508
0.12  1.2111067679839747  -15.6914  -0.570002  0.021896625537311493
0.125  1.2276976629440515  -15.8719  -0.51036  0.023327470219582883
0.13  1.2438518061002608  -16.0182  -0.436966  0.02483391486454188
0.135  1.2595968527216623  -16.1307  -0.348889  0.026423338056897217
0.14  1.2749577584200247  -16.2098  -0.24515  0.028102558026717135
0.145  1.289957128762241  -16.2558  -0.124726  0.029877703875561774
0.15  1.3046155132178223  -16.2692  0.0134456  0.0317537397466799
0.155  1.3189516538497414  -16.2499  0.170471  0.03373527766581934
0.16  1.3329826969402145  -16.1982  0.347491  0.035825406134649886
0.165  1.3467243740524568  -16.1142  0.545679  0.03802663383785024
0.17  1.3601911577281314  -15.9978  0.766239  0.04034016833625866
0.175  1.373396396009731  -15.849  1.0104  0.042766532398092576
0.18  1.3863524291861147  -15.6678  1.2794  0.045304731460497336
0.185  1.39907069153544  -15.4541  1.57451  0.04795320713925752
0.19  1.411561800344002  -15.2078  1.89699  0.05070914421816814
0.195  1.4238356340829645  -14.9286  2.24813  0.053568698513458045
0.2  1.4359014013058058  -14.6165  2.62918  0.05652741248552964
0.205  1.447767701570819  -14.2712  3.04143  0.059579578074108866
0.21  1.459442579482532  -13.8927  3.48611  0.06271914665865366
0.215  1.4709335727735418  -13.4807  3.96448  0.06593908718415002
0.22  1.482247755206434  -13.035  4.47774  0.06923157536472178
0.225  1.493391774958151  -12.5555  5.02709  0.07258869835934748
0.23  1.5043718890517208  -12.0419  5.61368  0.07600164248446645
0.235  1.515193994318948  -11.4942  6.23866  0.07946155251587224
0.24  1.5258636553095186  -10.9122  6.9031  0.08295930105293506
0.245  1.536386129504652  -10.2957  7.60806  0.08648526290324482
0.25  1.5467663901450108  -9.64468  8.35454  0.09003029225293761
0.255  1.557009146941552  -8.95897  9.14352  0.09358464860643886
0.26  1.567118864903085  -8.23851  9.97591  0.09713920646942552
0.265  1.5770997814845271  -7.48323  10.8526  0.10068485635614464
0.27  1.5869559222343248  -6.69309  11.7744  0.10421254249850076
0.275  1.5966911150976197  -5.86808  12.742  0.10771397076188954
0.28  1.6063090035128518  -5.0082  13.7563  0.11118056756278374
0.285  1.6158130584232078  -4.11346  14.8179  0.11460482130771504
0.29  1.625206589310191  -3.18391  15.9274  0.11797937286347615
0.295  1.634492754344327  -2.21962  17.0854  0.1212965702377109
0.3  1.643674569737348  -1.22067  18.2924  0.12455185869777696
0.305  1.6527549183708659  -0.187166  19.549  0.1277374391499738
0.31  1.6617365577683991  0.880763  20.8556  0.13085018601297094
0.315  1.6706221274704574  1.98297  22.2125  0.13388272577598698
0.32  1.6794141558661069  3.1193  23.6202  0.13683324787407325
0.325  1.6881150665289004  4.28957  25.079  0.13969684437375576
0.33  1.6967271841001683  5.49358  26.5892  0.1424698321753569
0.335  1.705252739758344  6.73111  28.151  0.14515084910256537
0.34  1.7136938763091736  8.00195  29.7646  0.14773753407384985
0.345  1.722052652928246  9.30583  31.4303  0.1502265176974438
0.35  1.7303310495842728  10.6425  33.1482  0.15261781580638467
0.355  1.7385309711688368  12.0117  34.9184  0.1549104355191154
0.36  1.746654251355935  13.4132  36.741  0.15710449925427628
0.365  1.7547026562124866  14.8466  38.6162  0.15919701072713982
0.37  1.7626778875790496  16.3116  40.5439  0.1611914452775282
0.375  1.7705815862382723  17.808  42.5243  0.16308592346778633
0.38  1.7784153348870422  19.3355  44.5573  0.16488187836884352
0.385  1.7861806609269106  20.8936  46.6429  0.16657971528513024
0.39  1.7938790390861112  22.4821  48.7811  0.1681808448980343
0.395  1.801511893885355  24.1007  50.9718  0.16968775519864765
0.4  1.8090806019585615  25.7489  53.2151  0.17109983174882942
0.405  1.8165864942387626  27.4265  55.5109  0.1724195558075754
0.41  1.824030858018573  29.1331  57.859  0.17364945459080722
0.415  1.8314149388938585  30.8683  60.2594  0.1747909565613205
0.42  1.83873994259855  32.6318  62.7121  0.1758454701590401
0.425  1.8460070367379156  34.4233  65.2168  0.17681549475778408
0.43  1.853217352427036  36.2423  67.7735  0.17770243764110438
0.435  1.8603719858407037  38.0886  70.3822  0.17850960183089268
0.44  1.8674719996804978  39.9617  73.0425  0.1792394583393663
0.445  1.8745184245643436  41.8613  75.7545  0.17989230236624054
0.45  1.8815122603434795  43.7871  78.5179  0.18047241951395265
0.455  1.8884544773513798  45.7386  81.3326  0.18098015907916118
0.46  1.8953460175888621  47.7156  84.1986  0.1814195955023269
0.465  1.9021877958492885  49.7177  87.1156  0.18179202560589258
0.47  1.9089807007875064  51.7444  90.0834  0.18210058922647682
0.475  1.9157255959359014  53.7956  93.102  0.182346372714647
0.48  1.9224233206707115  55.8707  96.1712  0.18253151889845454
0.485  1.9290746911315242  57.9695  99.2908  0.1826589958667542
0.49  1.9356805010966889  60.0917  102.461  0.1827306863678241
0.495  1.9422415228171765  62.2368  105.681  0.182748777262107
0.5  1.9487585078112655  64.4046  108.95  0.18271627096321608
0.505  1.9552321876222603  66.5948  112.27  0.18263257785030124
0.51  1.9616632745413145  68.8068  115.639  0.18250195555374907
0.515  1.9680524622972877  71.0406  119.058  0.1823258173909236
0.52  1.9744004267154465  73.2957  122.526  0.18210530775779132
0.525  1.9807078263467004  75.5718  126.043  0.1818430050730978
0.53  1.9869753030689572  77.8686  129.609  0.18154055608594608
0.535  1.9932034826620881  80.1857  133.224  0.1811995905334423
0.54  1.9993929753578885  82.523  136.887  0.1808219268808261
0.545  2.005544376366351  84.88  140.599  0.18040974295375872
0.55  2.0116582663794698  87.2565  144.359  0.17996306410285484
0.555  2.0177352120537395  89.6521  148.168  0.17948486494101792
0.56  2.023775766472425  92.0666  152.024  0.17897707347564046
0.565  2.0297804695886263  94.4997  155.928  0.17843999751155853
0.57  2.0357498486501  96.9511  159.88  0.17787418872680666
0.575  2.0416844186067395  99.4205  163.88  0.17728354716143505
0.58  2.047584682501565  101.908  167.927  0.1766670572276155
0.585  2.0534511318460327  104.412  172.021  0.17602786810542542
0.59  2.0592842469804102  106.934  176.162  0.17536535176055668
0.595  2.065084497419944  109.473  180.35  0.17468250924330941
0.6  2.070852342187486  112.028  184.585  0.17397900740650965
0.605  2.0765882301332215  114.6  188.867  0.17325670614005897
0.61  2.0822926002420985  117.188  193.195  0.17251707813735084
0.615  2.0879658819295295  119.792  197.569  0.17176042239682326
0.62  2.0936084953259027  122.412  201.99  0.17098763502874334
0.625  2.099220851550416  125.047  206.457  0.17019932054461423
0.63  2.104803352974712  127.697  210.97  0.16939812541968946
0.635  2.1103563934767773  130.362  215.529  0.16858348806156534
0.64  2.1158803586855317  133.042  220.133  0.16775582886754248
0.645  2.1213756262165293  135.736  224.783  0.16691764678507903
0.65  2.1268425658991466  138.445  229.479  0.16606823729022077
0.655  2.132281539995643  141.168  234.22  0.16520886389054765
0.66  2.137692903412432  143.904  239.006  0.16434058159019205
0.665  2.143077003903903  146.654  243.837  0.16346419731935846
0.67  2.148434182269112  149.418  248.713  0.16257909374732382
0.675  2.1537647725416353  152.195  253.634  0.16168704889525692
0.68  2.1590691021728756  154.985  258.6  0.16078894080525583
0.685  2.164347492209099  157.787  263.611  0.15988423859137763
0.69  2.16960025746245  160.603  268.666  0.15897374666972722
0.695  2.174827706676199  163.43  273.765  0.1580593696537592
0.7  2.1800301426844557  166.27  278.909  0.15714007943520064
0.705  2.185207862566572  169.122  284.097  0.1562169549559121
0.71  2.1903611577964446  171.986  289.329  0.1552900664168475
0.715  2.19549031438692  174.862  294.605  0.15436021119052462
0.72  2.2005956130295052  177.749  299.925  0.1534275469936945
0.725  2.2056773292295544  180.647  305.289  0.15249356972810418
0.73  2.210735733437115  183.557  310.696  0.1515576299827037
0.735  2.2157710911736057  186.478  316.147  0.15061973094416442
0.74  2.2207836631544757  189.409  321.642  0.14968143162792077
0.745  2.225773705408011  192.351  327.18  0.14874207454149158
0.75  2.2307414693904213  195.304  332.761  0.1478023876859016
0.755  2.2356872020973606  198.267  338.386  0.14686305559092225
0.76  2.2406111461720033  201.24  344.054  0.14592350858698047
0.765  2.245513540009814  204.223  349.764  0.14498526436420903
0.77  2.250394617860125  207.217  355.518  0.14404729479699407
0.775  2.255254609924644  210.22  361.315  0.14311058979540933
0.78  2.2600937424530017  213.232  367.154  0.14217525072801723
0.785  2.2649122378354476  216.254  373.036  0.14124106419321714
0.79  2.2697103146927953  219.286  378.961  0.1403087013840384
0.795  2.2744881879637178  222.326  384.928  0.13937909733168127
0.8  2.279246068989485  225.376  390.938  0.1384512714942524
0.805  2.2839841655962365  228.435  396.991  0.13752596075238832
0.81  2.288702682174871  231.502  403.085  0.1366027566097546
0.815  2.2934018197586434  234.578  409.222  0.13568267540852952
0.82  2.298081776098542  237.663  415.401  0.13476578067603673
0.825  2.3027427457365244  240.756  421.622  0.13385145597643408
0.83  2.30738492007669  243.858  427.885  0.1329409000041591
0.835  2.31200848745445  246.967  434.19  0.13203357073947003
0.84  2.3166136332037754  250.085  440.537  0.13112992244839242
0.845  2.3212005397225735  253.211  446.926  0.1302293416016735
0.85  2.325769386536266  256.344  453.357  0.1293325089904835
0.855  2.330320350359627  259.486  459.829  0.12843995619286808
0.86  2.3348536051569337  262.634  466.343  0.1275511266996238
0.865  2.339369322200488  265.791  472.899  0.12666639053959627
0.87  2.343867670127565  268.955  479.496  0.12578592557968768
0.875  2.3483488149958354  272.126  486.134  0.12490967640230749
0.88  2.352812920337313  275.304  492.814  0.12403750929841258
0.885  2.3572601472108747  278.49  499.536  0.12316992954588807
0.89  2.361690654253396  281.682  506.298  0.12230717357614118
0.895  2.3661045977295547  284.881  513.102  0.12144833936545475
0.9  2.37050213158033  288.088  519.947  0.12059400383986911
0.905  2.3748834074702527  291.3  526.833  0.11974492372982365
0.91  2.379248574833438  294.52  533.76  0.11890022471468706
0.915  2.3835977809184383  297.746  540.728  0.11805998366247675
0.92  2.387931170831957  300.979  547.737  0.11722468642173503
0.925  2.3922488875814523  304.217  554.786  0.11639446758070153
0.93  2.396551072116672  307.463  561.877  0.1155689389792571
0.935  2.4008378633701435  310.714  569.009  0.11474829961942754
0.94  2.405109398296661  313.971  576.181  0.11393308798593783
0.945  2.4093658119117882  317.235  583.394  0.11312192551625924
0.95  2.4136072373294173  320.504  590.647  0.1123167190503711
0.955  2.417833805798401  323.779  597.941  0.11151550796718435
