# density (fm-3), kf, e, p, vs^2
0.01  0.5290434255797746  -1.05968  -0.0199975  0.00011871598974613431
0.015  0.6055953592088  -2.0898  -0.0471685  0.0001189925042694808
0.02  0.6665375477311392  -3.1403  -0.0838109  0.0002535294361607963
0.025  0.7180004669280444  -4.17767  -0.128059  0.0008190742797736493
0.03  0.762984711892096  -5.18527  -0.178066  0.0015244561104426433
0.035  0.8032101741137051  -6.15393  -0.232067  0.0023478335248235146
0.04  0.8397652840096557  -7.07841  -0.288405  0.003269824760358567
0.045  0.8733876621994663  -7.95576  -0.345548  0.004272474986115283
0.05  0.9046030011082091  -8.7845  -0.402087  0.0053391962341963264
0.055  0.9338007237309498  -9.56405  -0.456742  0.0064548989893040915
0.06  0.9612782887597225  -10.2945  -0.508351  0.00760614143264939
0.065  0.9872686432337484  -10.9764  -0.555868  0.008781152785019487
0.07  1.0119580243904225  -11.6105  -0.59835  0.009969932207690728
0.075  1.0354979438542857  -12.1979  -0.63495  0.011164201090307666
0.08  1.0580135127095287  -12.7397  -0.664905  0.01235737998397699
0.085  1.0796093813128662  -13.2372  -0.687524  0.01354438450804592
0.09  1.100374075990257  -13.6917  -0.702183  0.014721909740755752
0.095  1.1203832294422698  -14.1045  -0.708308  0.01588769394944669
0.1  1.1397020298818086  -14.477  -0.705371  0.01704071569886915
0.105  1.1583871070949272  -14.8103  -0.69288  0.01818118502244709
0.11  1.176488005276868  -15.1058  -0.670369  0.019310066470473078
0.115  1.1940483476721884  -15.3647  -0.637392  0.02042930823486222
0.12  1.2111067679839747  -15.5882  -0.593517  0.021541356751079987
0.125  1.2276976629440515  -15.7773  -0.538321  0.022648784376040676
0.13  1.2438518061002608  -15.9331  -0.471385  0.023755137886626095
0.135  1.2595968527216623  -16.0565  -0.392287  0.024863716228430918
0.14  1.2749577584200247  -16.1486  -0.300603  0.025978302700842254
0.145  1.289957128762241  -16.2102  -0.195903  0.027102301972101166
0.15  1.3046155132178223  -16.242  -0.077745  0.028239585290751053
0.155  1.3189516538497414  -16.245  0.0543194  0.029393295400306725
0.16  1.3329826969402145  -16.2197  0.200751  0.03056702418311417
0.165  1.3467243740524568  -16.1668  0.362022  0.03176362804481877
0.17  1.3601911577281314  -16.0869  0.538618  0.03298605977782111
0.175  1.373396396009731  -15.9806  0.731034  0.03423677084977841
0.18  1.3863524291861147  -15.8483  0.939778  0.03551794369172285
0.185  1.39907069153544  -15.6907  1.16537  0.03683139105783023
0.19  1.411561800344002  -15.508  1.40833  0.03817876787588581
0.195  1.4238356340829645  -15.3007  1.6692  0.039561120197162125
0.2  1.4359014013058058  -15.0691  1.94852  0.04097935020468432
0.205  1.447767701570819  -14.8136  2.24685  0.04243386761598513
0.21  1.459442579482532  -14.5346  2.56473  0.043925072540016576
0.215  1.4709335727735418  -14.2322  2.90273  0.045452619341775836
0.22  1.482247755206434  -13.9067  3.26141  0.047016281817662146
0.225  1.493391774958151  -13.5584  3.64133  0.04861535154653875
0.23  1.5043718890517208  -13.1875  4.04304  0.050248757407390036
0.235  1.515193994318948  -12.7942  4.46712  0.05191541765706469
0.24  1.5258636553095186  -12.3786  4.91412  0.053614014222479946
0.245  1.536386129504652  -11.9411  5.38459  0.055342894425107966
0.25  1.5467663901450108  -11.4816  5.87909  0.05710026133359555
0.255  1.557009146941552  -11.0005  6.39815  0.05888447626200821
0.26  1.567118864903085  -10.4977  6.9423  0.06069329440865053
0.265  1.5770997814845271  -9.97356  7.51209  0.06252462214982529
0.27  1.5869559222343248  -9.42807  8.10802  0.06437636670983529
0.275  1.5966911150976197  -8.86138  8.73061  0.06624622246426011
0.28  1.6063090035128518  -8.27364  9.38035  0.0681317926122812
0.285  1.6158130584232078  -7.66495  10.0577  0.0700308183296585
0.29  1.625206589310191  -7.03542  10.7632  0.07194081062372343
0.295  1.634492754344327  -6.38517  11.4973  0.07385932627488813
0.3  1.643674569737348  -5.71431  12.2605  0.07578416007751071
0.305  1.6527549183708659  -5.02293  13.0531  0.07771272424936558
0.31  1.6617365577683991  -4.31116  13.8757  0.07964283812911861
0.315  1.6706221274704574  -3.57909  14.7285  0.08157210711466233
0.32  1.6794141558661069  -2.82684  15.6121  0.08349828861422787
0.325  1.6881150665289004  -2.05451  16.5268  0.08541913187144015
0.33  1.6967271841001683  -1.26221  17.473  0.08733261418752818
0.335  1.705252739758344  -0.450042  18.4511  0.0892364038825662
0.34  1.7136938763091736  0.381879  19.4614  0.09112878656164586
0.345  1.722052652928246  1.23344  20.5042  0.09300751790571364
0.35  1.7303310495842728  2.10452  21.5799  0.09487102531916425
0.355  1.7385309711688368  2.99502  22.6888  0.09671723402212568
0.36  1.746654251355935  3.90482  23.8311  0.09854468144188458
0.365  1.7547026562124866  4.8338  25.0072  0.10035165719770023
0.37  1.7626778875790496  5.78185  26.2174  0.10213661522112821
0.375  1.7705815862382723  6.74884  27.4618  0.10389820247709161
0.38  1.7784153348870422  7.73465  28.7408  0.10563490100774077
0.385  1.7861806609269106  8.73916  30.0546  0.10734559990752421
0.39  1.7938790390861112  9.76224  31.4033  0.1090294557505128
0.395  1.801511893885355  10.8038  32.7873  0.11068405351154792
0.4  1.8090806019585615  11.8636  34.2066  0.11230971682643805
0.405  1.8165864942387626  12.9416  35.6616  0.11390546945399649
0.41  1.824030858018573  14.0377  37.1524  0.1154693794131341
0.415  1.8314149388938585  15.1517  38.6791  0.11700168348156409
0.42  1.83873994259855  16.2835  40.2419  0.1185015291385782
0.425  1.8460070367379156  17.433  41.841  0.11996808441474897
0.43  1.853217352427036  18.5999  43.4765  0.1214005872990661
0.435  1.8603719858407037  19.7843  45.1485  0.12279929570846766
0.44  1.8674719996804978  20.9859  46.8571  0.12416347569898349
0.445  1.8745184245643436  22.2045  48.6026  0.12549234869118128
0.45  1.8815122603434795  23.4402  50.3848  0.12678525190415735
0.455  1.8884544773513798  24.6926  52.2041  0.1280435024244559
0.46  1.8953460175888621  25.9618  54.0604  0.1292653978696883
0.465  1.9021877958492885  27.2474  55.9539  0.13045129533557992
0.47  1.9089807007875064  28.5495  57.8845  0.131601572087921
0.475  1.9157255959359014  29.8678  59.8524  0.13271657748068522
0.48  1.9224233206707115  31.2022  61.8577  0.13379464254133272
0.485  1.9290746911315242  32.5525  63.9004  0.13483718920441903
0.49  1.9356805010966889  33.9187  65.9805  0.13584359345205396
0.495  1.9422415228171765  35.3005  68.098  0.1368152821536124
0.5  1.9487585078112655  36.6979  70.2531  0.13775059397988035
0.505  1.9552321876222603  38.1106  72.4457  0.13865197621843628
0.51  1.9616632745413145  39.5385  74.6759  0.13951683200314005
0.515  1.9680524622972877  40.9816  76.9437  0.1403485252194437
0.52  1.9744004267154465  42.4396  79.2491  0.14114452959712212
0.525  1.9807078263467004  43.9123  81.5921  0.1419072319084071
0.53  1.9869753030689572  45.3998  83.9728  0.14263600869502258
0.535  1.9932034826620881  46.9017  86.391  0.14333135161804508
0.54  1.9993929753578885  48.418  88.8469  0.14399360620006713
0.545  2.005544376366351  49.9485  91.3404  0.14462417186064327
0.55  2.0116582663794698  51.4931  93.8715  0.14522248050696482
0.555  2.0177352120537395  53.0517  96.4402  0.1457889299034835
0.56  2.023775766472425  54.624  99.0464  0.14632396248536367
0.565  2.0297804695886263  56.21  101.69  0.14682797954102902
0.57  2.0357498486501  57.8095  104.372  0.14730304605867872
0.575  2.0416844186067395  59.4224  107.09  0.147747237700526
0.58  2.047584682501565  61.0485  109.847  0.14816310952453735
0.585  2.0534511318460327  62.6877  112.641  0.14854959258238873
0.59  2.0592842469804102  64.3399  115.472  0.1489079866409171
0.595  2.065084497419944  66.0048  118.34  0.14923959802684142
0.6  2.070852342187486  67.6825  121.246  0.1495427013882234
0.605  2.0765882301332215  69.3727  124.189  0.14982064154842545
0.61  2.0822926002420985  71.0754  127.17  0.15007079508936574
0.615  2.0879658819295295  72.7903  130.188  0.1502964733993121
0.62  2.0936084953259027  74.5174  133.243  0.1504970792161701
0.625  2.099220851550416  76.2565  136.335  0.1506729519507285
0.63  2.104803352974712  78.0076  139.464  0.15082530031565022
0.635  2.1103563934767773  79.7703  142.63  0.15095357660853115
0.64  2.1158803586855317  81.5447  145.833  0.1510589632162513
0.645  2.1213756262165293  83.3306  149.073  0.15114266122827305
0.65  2.1268425658991466  85.128  152.35  0.15120406414366122
0.655  2.132281539995643  86.9365  155.663  0.15124368649128409
0.66  2.137692903412432  88.7562  159.014  0.15126318053922877
0.665  2.143077003903903  90.5869  162.401  0.15126144489326399
0.67  2.148434182269112  92.4285  165.825  0.15124031996750056
0.675  2.1537647725416353  94.2809  169.285  0.15120024152996225
0.68  2.1590691021728756  96.144  172.782  0.1511412892100156
0.685  2.164347492209099  98.0175  176.316  0.15106374139867307
0.69  2.16960025746245  99.9015  179.885  0.15096816316387
0.695  2.174827706676199  101.796  183.492  0.1508551322082897
0.7  2.1800301426844557  103.7  187.134  0.15072463873476713
0.705  2.185207862566572  105.615  190.813  0.15057809382736925
0.71  2.1903611577964446  107.539  194.528  0.15041609526234467
0.715  2.19549031438692  109.474  198.279  0.1502377759460357
0.72  2.2005956130295052  111.418  202.066  0.15004440470276642
0.725  2.2056773292295544  113.372  205.889  0.1498368934270578
0.73  2.210735733437115  115.335  209.748  0.14961470753281875
0.735  2.2157710911736057  117.307  213.643  0.1493788596389552
0.74  2.2207836631544757  119.289  217.573  0.14912874241269372
0.745  2.225773705408011  121.281  221.54  0.1488658776524735
0.75  2.2307414693904213  123.281  225.542  0.14859094289548255
0.755  2.2356872020973606  125.29  229.579  0.14830316970745372
0.76  2.2406111461720033  127.308  233.653  0.14800405361030272
0.765  2.245513540009814  129.335  237.761  0.14769335993365731
0.77  2.250394617860125  131.371  241.906  0.14737081662030055
0.775  2.255254609924644  133.415  246.085  0.14703789483697655
0.78  2.2600937424530017  135.468  250.3  0.1466943475567556
0.785  2.2649122378354476  137.529  254.55  0.14634134373848612
0.79  2.2697103146927953  139.599  258.835  0.1459781096025998
0.795  2.2744881879637178  141.677  263.155  0.14560487801458077
0.8  2.279246068989485  143.763  267.511  0.14522321503913277
0.805  2.2839841655962365  145.857  271.901  0.14483270379401686
0.81  2.288702682174871  147.959  276.327  0.14443398163422805
0.815  2.2934018197586434  150.068  280.787  0.14402672877551653
0.82  2.298081776098542  152.186  285.282  0.14361150025508992
0.825  2.3027427457365244  154.311  289.812  0.14318859706891776
0.83  2.30738492007669  156.444  294.376  0.1427589030010982
0.835  2.31200848745445  158.584  298.975  0.14232172025527948
0.84  2.3166136332037754  160.732  303.609  0.14187856749973504
0.845  2.3212005397225735  162.887  308.277  0.14142821860445579
0.85  2.325769386536266  165.049  312.98  0.14097140373643582
0.855  2.330320350359627  167.219  317.717  0.1405089737001944
0.86  2.3348536051569337  169.395  322.488  0.14004118829275874
0.865  2.339369322200488  171.579  327.294  0.13956707151117145
0.87  2.343867670127565  173.77  332.134  0.1390883920573158
0.875  2.3483488149958354  175.967  337.008  0.13860455959382778
0.88  2.352812920337313  178.171  341.916  0.13811554585351046
0.885  2.3572601472108747  180.382  346.858  0.1376221506712464
0.89  2.361690654253396  182.6  351.834  0.13712442971585914
0.895  2.3661045977295547  184.824  356.844  0.13662252768475588
0.9  2.37050213158033  187.055  361.889  0.1361163088214283
0.905  2.3748834074702527  189.292  366.966  0.13560693646412073
0.91  2.379248574833438  191.535  372.078  0.13509343491946738
0.915  2.3835977809184383  193.785  377.224  0.13457658553669366
0.92  2.387931170831957  196.041  382.403  0.13405661253116496
0.925  2.3922488875814523  198.303  387.616  0.13353346081323447
0.93  2.396551072116672  200.571  392.862  0.13300797409752121
0.935  2.4008378633701435  202.845  398.142  0.13247938228293651
0.94  2.405109398296661  205.125  403.455  0.13194852067660665
0.945  2.4093658119117882  207.411  408.802  0.13141462583853125
0.95  2.4136072373294173  209.703  414.182  0.1308785248180506
0.955  2.417833805798401  212.0  419.596  0.1303409399914801
0.96  2.422045646738297  214.304  425.042  0.12980120320542202
0.965  2.4262428877742432  216.612  430.522  0.12925941490855625
0.97  2.430425654770989  218.927  436.035  0.12871613485621405
0.975  2.434594071866112  221.247  441.582  0.12817077261494259
0.98  2.438748261502438  223.572  447.161  0.12762488921291548
0.985  2.4428883444596954  225.903  452.773  0.12707696553447806
0.99  2.4470144398854163  228.239  458.419  0.12652838955608778
0.995  2.4511266653251136  230.58  464.097  0.12597864917828974
1.0  2.4552251367517473  232.926  469.809  0.1254276048746533
