# Homogenous matter with Skyrme BSk31
# den [fm-3], E/A [MeV], Press [MeV.fm-3] 
0.0010000000 0.103616 -0.000103
0.0020000000 -0.037623 -0.000670
0.0030000000 -0.218828 -0.001730
0.0040000000 -0.417594 -0.003272
0.0050000000 -0.625508 -0.005278
0.0060000000 -0.838439 -0.007731
0.0070000000 -1.054055 -0.010614
0.0080000000 -1.270916 -0.013908
0.0090000000 -1.488082 -0.017597
0.0100000000 -1.704913 -0.021666
0.0110000000 -1.920958 -0.026098
0.0120000000 -2.135890 -0.030880
0.0130000000 -2.349473 -0.035996
0.0140000000 -2.561530 -0.041432
0.0150000000 -2.771928 -0.047176
0.0160000000 -2.980569 -0.053215
0.0170000000 -3.187377 -0.059536
0.0180000000 -3.392298 -0.066126
0.0190000000 -3.595291 -0.072975
0.0200000000 -3.796325 -0.080070
0.0210000000 -3.995379 -0.087399
0.0220000000 -4.192441 -0.094953
0.0230000000 -4.387501 -0.102720
0.0240000000 -4.580555 -0.110690
0.0250000000 -4.771604 -0.118853
0.0260000000 -4.960649 -0.127197
0.0270000000 -5.147697 -0.135714
0.0280000000 -5.332752 -0.144394
0.0290000000 -5.515824 -0.153227
0.0300000000 -5.696923 -0.162203
0.0310000000 -5.876057 -0.171314
0.0320000000 -6.053239 -0.180550
0.0330000000 -6.228480 -0.189902
0.0340000000 -6.401793 -0.199362
0.0350000000 -6.573189 -0.208921
0.0360000000 -6.742682 -0.218570
0.0370000000 -6.910285 -0.228301
0.0380000000 -7.076010 -0.238105
0.0390000000 -7.239870 -0.247975
0.0400000000 -7.401879 -0.257902
0.0410000000 -7.562050 -0.267878
0.0420000000 -7.720396 -0.277895
0.0430000000 -7.876930 -0.287945
0.0440000000 -8.031664 -0.298021
0.0450000000 -8.184611 -0.308114
0.0460000000 -8.335785 -0.318218
0.0470000000 -8.485197 -0.328325
0.0480000000 -8.632859 -0.338427
0.0490000000 -8.778784 -0.348517
0.0500000000 -8.922984 -0.358587
0.0510000000 -9.065471 -0.368631
0.0520000000 -9.206256 -0.378641
0.0530000000 -9.345350 -0.388611
0.0540000000 -9.482766 -0.398532
0.0550000000 -9.618513 -0.408399
0.0560000000 -9.752604 -0.418204
0.0570000000 -9.885049 -0.427941
0.0580000000 -10.015858 -0.437602
0.0590000000 -10.145042 -0.447181
0.0600000000 -10.272611 -0.456671
0.0610000000 -10.398575 -0.466066
0.0620000000 -10.522945 -0.475359
0.0630000000 -10.645730 -0.484543
0.0640000000 -10.766939 -0.493613
0.0650000000 -10.886582 -0.502560
0.0660000000 -11.004669 -0.511380
0.0670000000 -11.121208 -0.520066
0.0680000000 -11.236209 -0.528611
0.0690000000 -11.349681 -0.537009
0.0700000000 -11.461631 -0.545255
0.0710000000 -11.572069 -0.553341
0.0720000000 -11.681004 -0.561261
0.0730000000 -11.788442 -0.569010
0.0740000000 -11.894394 -0.576582
0.0750000000 -11.998866 -0.583970
0.0760000000 -12.101867 -0.591168
0.0770000000 -12.203404 -0.598171
0.0780000000 -12.303486 -0.604972
0.0790000000 -12.402119 -0.611566
0.0800000000 -12.499311 -0.617946
0.0810000000 -12.595069 -0.624107
0.0820000000 -12.689401 -0.630043
0.0830000000 -12.782314 -0.635749
0.0840000000 -12.873815 -0.641218
0.0850000000 -12.963911 -0.646445
0.0860000000 -13.052607 -0.651423
0.0870000000 -13.139912 -0.656149
0.0880000000 -13.225832 -0.660615
0.0890000000 -13.310373 -0.664816
0.0900000000 -13.393541 -0.668747
0.0910000000 -13.475344 -0.672402
0.0920000000 -13.555787 -0.675775
0.0930000000 -13.634876 -0.678861
0.0940000000 -13.712617 -0.681655
0.0950000000 -13.789017 -0.684151
0.0960000000 -13.864080 -0.686344
0.0970000000 -13.937814 -0.688228
0.0980000000 -14.010224 -0.689797
0.0990000000 -14.081315 -0.691048
0.1000000000 -14.151092 -0.691973
0.1010000000 -14.219563 -0.692568
0.1020000000 -14.286731 -0.692828
0.1030000000 -14.352602 -0.692746
0.1040000000 -14.417181 -0.692319
0.1050000000 -14.480475 -0.691541
0.1060000000 -14.542487 -0.690406
0.1070000000 -14.603222 -0.688909
0.1080000000 -14.662687 -0.687046
0.1090000000 -14.720886 -0.684810
0.1100000000 -14.777823 -0.682198
0.1110000000 -14.833503 -0.679203
0.1120000000 -14.887932 -0.675820
0.1130000000 -14.941114 -0.672046
0.1140000000 -14.993053 -0.667873
0.1150000000 -15.043755 -0.663299
0.1160000000 -15.093223 -0.658316
0.1170000000 -15.141462 -0.652921
0.1180000000 -15.188477 -0.647108
0.1190000000 -15.234272 -0.640873
0.1200000000 -15.278851 -0.634210
0.1210000000 -15.322218 -0.627115
0.1220000000 -15.364379 -0.619582
0.1230000000 -15.405336 -0.611607
0.1240000000 -15.445094 -0.603184
0.1250000000 -15.483657 -0.594309
0.1260000000 -15.521029 -0.584977
0.1270000000 -15.557214 -0.575184
0.1280000000 -15.592216 -0.564923
0.1290000000 -15.626039 -0.554191
0.1300000000 -15.658687 -0.542983
0.1310000000 -15.690163 -0.531293
0.1320000000 -15.720471 -0.519118
0.1330000000 -15.749615 -0.506451
0.1340000000 -15.777599 -0.493289
0.1350000000 -15.804426 -0.479627
0.1360000000 -15.830100 -0.465460
0.1370000000 -15.854624 -0.450783
0.1380000000 -15.878002 -0.435592
0.1390000000 -15.900238 -0.419881
0.1400000000 -15.921334 -0.403647
0.1410000000 -15.941295 -0.386884
0.1420000000 -15.960123 -0.369588
0.1430000000 -15.977822 -0.351754
0.1440000000 -15.994395 -0.333378
0.1450000000 -16.009846 -0.314455
0.1460000000 -16.024178 -0.294980
0.1470000000 -16.037393 -0.274948
0.1480000000 -16.049496 -0.254356
0.1490000000 -16.060489 -0.233199
0.1500000000 -16.070375 -0.211471
0.1510000000 -16.079157 -0.189169
0.1520000000 -16.086839 -0.166287
0.1530000000 -16.093424 -0.142822
0.1540000000 -16.098914 -0.118769
0.1550000000 -16.103312 -0.094123
0.1560000000 -16.106622 -0.068880
0.1570000000 -16.108846 -0.043035
0.1580000000 -16.109987 -0.016584
0.1590000000 -16.110048 0.010478
0.1600000000 -16.109032 0.038154
0.1610000000 -16.106942 0.066451
0.1620000000 -16.103779 0.095371
0.1630000000 -16.099548 0.124920
0.1640000000 -16.094251 0.155102
0.1650000000 -16.087890 0.185921
0.1660000000 -16.080468 0.217382
0.1670000000 -16.071988 0.249489
0.1680000000 -16.062452 0.282246
0.1690000000 -16.051863 0.315659
0.1700000000 -16.040224 0.349730
0.1710000000 -16.027537 0.384465
0.1720000000 -16.013804 0.419869
0.1730000000 -15.999029 0.455944
0.1740000000 -15.983213 0.492696
0.1750000000 -15.966360 0.530129
0.1760000000 -15.948470 0.568248
0.1770000000 -15.929548 0.607056
0.1780000000 -15.909595 0.646558
0.1790000000 -15.888613 0.686758
0.1800000000 -15.866606 0.727661
0.1810000000 -15.843575 0.769270
0.1820000000 -15.819522 0.811591
0.1830000000 -15.794451 0.854627
0.1840000000 -15.768362 0.898382
0.1850000000 -15.741260 0.942862
0.1860000000 -15.713144 0.988069
0.1870000000 -15.684019 1.034009
0.1880000000 -15.653886 1.080685
0.1890000000 -15.622747 1.128102
0.1900000000 -15.590605 1.176264
0.1910000000 -15.557461 1.225175
0.1920000000 -15.523318 1.274839
0.1930000000 -15.488178 1.325261
0.1940000000 -15.452043 1.376445
0.1950000000 -15.414915 1.428395
0.1960000000 -15.376796 1.481114
0.1970000000 -15.337688 1.534608
0.1980000000 -15.297593 1.588880
0.1990000000 -15.256513 1.643935
0.2000000000 -15.214450 1.699777
0.2010000000 -15.171407 1.756409
0.2020000000 -15.127385 1.813836
0.2030000000 -15.082385 1.872063
0.2040000000 -15.036411 1.931092
0.2050000000 -14.989464 1.990929
0.2060000000 -14.941545 2.051577
0.2070000000 -14.892657 2.113041
0.2080000000 -14.842802 2.175324
0.2090000000 -14.791981 2.238431
0.2100000000 -14.740197 2.302366
0.2110000000 -14.687450 2.367132
0.2120000000 -14.633744 2.432735
0.2130000000 -14.579079 2.499177
0.2140000000 -14.523458 2.566463
0.2150000000 -14.466882 2.634597
0.2160000000 -14.409353 2.703584
0.2170000000 -14.350873 2.773426
0.2180000000 -14.291444 2.844129
0.2190000000 -14.231067 2.915696
0.2200000000 -14.169744 2.988131
0.2210000000 -14.107477 3.061438
0.2220000000 -14.044268 3.135621
0.2230000000 -13.980117 3.210685
0.2240000000 -13.915027 3.286633
0.2250000000 -13.849000 3.363469
0.2260000000 -13.782037 3.441197
0.2270000000 -13.714139 3.519821
0.2280000000 -13.645309 3.599345
0.2290000000 -13.575548 3.679774
0.2300000000 -13.504858 3.761111
0.2310000000 -13.433239 3.843359
0.2320000000 -13.360695 3.926524
0.2330000000 -13.287225 4.010608
0.2340000000 -13.212833 4.095617
0.2350000000 -13.137519 4.181553
0.2360000000 -13.061285 4.268421
0.2370000000 -12.984132 4.356224
0.2380000000 -12.906063 4.444968
0.2390000000 -12.827078 4.534654
0.2400000000 -12.747179 4.625289
0.2410000000 -12.666367 4.716874
0.2420000000 -12.584644 4.809415
0.2430000000 -12.502012 4.902915
0.2440000000 -12.418472 4.997377
0.2450000000 -12.334025 5.092807
0.2460000000 -12.248673 5.189208
0.2470000000 -12.162417 5.286583
0.2480000000 -12.075258 5.384937
0.2490000000 -11.987199 5.484273
0.2500000000 -11.898240 5.584596
0.2510000000 -11.808383 5.685909
0.2520000000 -11.717629 5.788215
0.2530000000 -11.625980 5.891520
0.2540000000 -11.533437 5.995826
0.2550000000 -11.440001 6.101138
0.2560000000 -11.345673 6.207460
0.2570000000 -11.250456 6.314794
0.2580000000 -11.154350 6.423146
0.2590000000 -11.057357 6.532518
0.2600000000 -10.959477 6.642916
0.2610000000 -10.860713 6.754341
0.2620000000 -10.761066 6.866800
0.2630000000 -10.660536 6.980294
0.2640000000 -10.559126 7.094828
0.2650000000 -10.456836 7.210406
0.2660000000 -10.353667 7.327032
0.2670000000 -10.249622 7.444709
0.2680000000 -10.144701 7.563441
0.2690000000 -10.038905 7.683232
0.2700000000 -9.932236 7.804086
0.2710000000 -9.824695 7.926006
0.2720000000 -9.716283 8.048997
0.2730000000 -9.607002 8.173061
0.2740000000 -9.496852 8.298203
0.2750000000 -9.385835 8.424427
0.2760000000 -9.273951 8.551737
0.2770000000 -9.161203 8.680135
0.2780000000 -9.047592 8.809626
0.2790000000 -8.933118 8.940214
0.2800000000 -8.817782 9.071902
0.2810000000 -8.701587 9.204694
0.2820000000 -8.584532 9.338594
0.2830000000 -8.466620 9.473606
0.2840000000 -8.347851 9.609732
0.2850000000 -8.228226 9.746978
0.2860000000 -8.107747 9.885346
0.2870000000 -7.986414 10.024841
0.2880000000 -7.864230 10.165466
0.2890000000 -7.741194 10.307225
0.2900000000 -7.617308 10.450121
0.2910000000 -7.492574 10.594159
0.2920000000 -7.366991 10.739342
0.2930000000 -7.240562 10.885673
0.2940000000 -7.113288 11.033156
0.2950000000 -6.985168 11.181796
0.2960000000 -6.856206 11.331595
0.2970000000 -6.726400 11.482558
0.2980000000 -6.595754 11.634688
0.2990000000 -6.464267 11.787988
0.3000000000 -6.331941 11.942463
0.3010000000 -6.198776 12.098116
0.3020000000 -6.064775 12.254951
0.3030000000 -5.929937 12.412972
0.3040000000 -5.794264 12.572181
0.3050000000 -5.657757 12.732583
0.3060000000 -5.520416 12.894182
0.3070000000 -5.382244 13.056980
0.3080000000 -5.243240 13.220983
0.3090000000 -5.103407 13.386192
0.3100000000 -4.962744 13.552613
0.3110000000 -4.821253 13.720248
0.3120000000 -4.678935 13.889101
0.3130000000 -4.535791 14.059177
0.3140000000 -4.391821 14.230478
0.3150000000 -4.247027 14.403008
0.3160000000 -4.101410 14.576770
0.3170000000 -3.954971 14.751770
0.3180000000 -3.807710 14.928009
0.3190000000 -3.659628 15.105492
0.3200000000 -3.510727 15.284221
0.3210000000 -3.361008 15.464202
0.3220000000 -3.210471 15.645438
0.3230000000 -3.059117 15.827931
0.3240000000 -2.906947 16.011686
0.3250000000 -2.753963 16.196706
0.3260000000 -2.600164 16.382995
0.3270000000 -2.445553 16.570556
0.3280000000 -2.290129 16.759394
0.3290000000 -2.133894 16.949511
0.3300000000 -1.976848 17.140911
0.3310000000 -1.818994 17.333598
0.3320000000 -1.660330 17.527575
0.3330000000 -1.500859 17.722846
0.3340000000 -1.340581 17.919414
0.3350000000 -1.179497 18.117284
0.3360000000 -1.017608 18.316458
0.3370000000 -0.854914 18.516940
0.3380000000 -0.691417 18.718734
0.3390000000 -0.527118 18.921844
0.3400000000 -0.362017 19.126272
0.3410000000 -0.196115 19.332022
0.3420000000 -0.029414 19.539099
0.3430000000 0.138087 19.747505
0.3440000000 0.306387 19.957244
0.3450000000 0.475483 20.168319
0.3460000000 0.645377 20.380735
0.3470000000 0.816066 20.594494
0.3480000000 0.987550 20.809600
0.3490000000 1.159829 21.026057
0.3500000000 1.332900 21.243869
0.3510000000 1.506765 21.463038
0.3520000000 1.681421 21.683568
0.3530000000 1.856868 21.905463
0.3540000000 2.033105 22.128727
0.3550000000 2.210132 22.353362
0.3560000000 2.387947 22.579372
0.3570000000 2.566550 22.806762
0.3580000000 2.745940 23.035534
0.3590000000 2.926117 23.265691
0.3600000000 3.107078 23.497239
0.3610000000 3.288825 23.730178
0.3620000000 3.471355 23.964515
0.3630000000 3.654669 24.200251
0.3640000000 3.838765 24.437390
0.3650000000 4.023642 24.675937
0.3660000000 4.209301 24.915894
0.3670000000 4.395740 25.157264
0.3680000000 4.582958 25.400052
0.3690000000 4.770954 25.644261
0.3700000000 4.959729 25.889894
0.3710000000 5.149281 26.136954
0.3720000000 5.339609 26.385446
0.3730000000 5.530713 26.635373
0.3740000000 5.722592 26.886738
0.3750000000 5.915245 27.139544
0.3760000000 6.108672 27.393795
0.3770000000 6.302871 27.649496
0.3780000000 6.497843 27.906648
0.3790000000 6.693586 28.165255
0.3800000000 6.890100 28.425322
0.3810000000 7.087383 28.686851
0.3820000000 7.285436 28.949846
0.3830000000 7.484258 29.214310
0.3840000000 7.683847 29.480247
0.3850000000 7.884204 29.747660
0.3860000000 8.085327 30.016553
0.3870000000 8.287216 30.286928
0.3880000000 8.489870 30.558791
0.3890000000 8.693288 30.832143
0.3900000000 8.897470 31.106989
0.3910000000 9.102416 31.383331
0.3920000000 9.308123 31.661174
0.3930000000 9.514593 31.940521
0.3940000000 9.721823 32.221374
0.3950000000 9.929814 32.503739
0.3960000000 10.138565 32.787617
0.3970000000 10.348074 33.073012
0.3980000000 10.558343 33.359929
0.3990000000 10.769368 33.648369
0.4000000000 10.981151 33.938338
0.4010000000 11.193691 34.229837
0.4020000000 11.406986 34.522871
0.4030000000 11.621037 34.817443
0.4040000000 11.835842 35.113556
0.4050000000 12.051401 35.411213
0.4060000000 12.267713 35.710419
0.4070000000 12.484778 36.011176
0.4080000000 12.702595 36.313489
0.4090000000 12.921163 36.617359
0.4100000000 13.140482 36.922791
0.4110000000 13.360551 37.229789
0.4120000000 13.581370 37.538354
0.4130000000 13.802937 37.848492
0.4140000000 14.025253 38.160205
0.4150000000 14.248316 38.473496
0.4160000000 14.472127 38.788370
0.4170000000 14.696684 39.104829
0.4180000000 14.921986 39.422877
0.4190000000 15.148034 39.742517
0.4200000000 15.374827 40.063752
0.4210000000 15.602364 40.386587
0.4220000000 15.830644 40.711023
0.4230000000 16.059667 41.037066
0.4240000000 16.289432 41.364717
0.4250000000 16.519939 41.693981
0.4260000000 16.751187 42.024860
0.4270000000 16.983175 42.357359
0.4280000000 17.215904 42.691480
0.4290000000 17.449372 43.027227
0.4300000000 17.683578 43.364604
0.4310000000 17.918523 43.703612
0.4320000000 18.154205 44.044257
0.4330000000 18.390624 44.386541
0.4340000000 18.627780 44.730468
0.4350000000 18.865672 45.076040
0.4360000000 19.104299 45.423262
0.4370000000 19.343661 45.772137
0.4380000000 19.583757 46.122668
0.4390000000 19.824586 46.474858
0.4400000000 20.066149 46.828711
0.4410000000 20.308444 47.184229
0.4420000000 20.551472 47.541418
0.4430000000 20.795230 47.900278
0.4440000000 21.039720 48.260815
0.4450000000 21.284940 48.623032
0.4460000000 21.530890 48.986931
0.4470000000 21.777569 49.352516
0.4480000000 22.024977 49.719790
0.4490000000 22.273113 50.088757
0.4500000000 22.521976 50.459421
0.4510000000 22.771567 50.831783
0.4520000000 23.021884 51.205848
0.4530000000 23.272928 51.581620
0.4540000000 23.524696 51.959100
0.4550000000 23.777190 52.338293
0.4560000000 24.030409 52.719202
0.4570000000 24.284351 53.101831
0.4580000000 24.539017 53.486182
0.4590000000 24.794406 53.872258
0.4600000000 25.050517 54.260064
0.4610000000 25.307350 54.649603
0.4620000000 25.564904 55.040877
0.4630000000 25.823179 55.433890
0.4640000000 26.082175 55.828646
0.4650000000 26.341890 56.225147
0.4660000000 26.602325 56.623398
0.4670000000 26.863479 57.023401
0.4680000000 27.125351 57.425159
0.4690000000 27.387941 57.828676
0.4700000000 27.651248 58.233956
0.4710000000 27.915272 58.641000
0.4720000000 28.180012 59.049814
0.4730000000 28.445468 59.460400
0.4740000000 28.711640 59.872761
0.4750000000 28.978526 60.286900
0.4760000000 29.246127 60.702822
0.4770000000 29.514442 61.120529
0.4780000000 29.783470 61.540024
0.4790000000 30.053211 61.961311
0.4800000000 30.323664 62.384393
0.4810000000 30.594830 62.809273
0.4820000000 30.866707 63.235955
0.4830000000 31.139295 63.664442
0.4840000000 31.412594 64.094737
0.4850000000 31.686602 64.526843
0.4860000000 31.961320 64.960764
0.4870000000 32.236748 65.396503
0.4880000000 32.512884 65.834063
0.4890000000 32.789728 66.273447
0.4900000000 33.067280 66.714660
0.4910000000 33.345539 67.157703
0.4920000000 33.624505 67.602580
0.4930000000 33.904178 68.049295
0.4940000000 34.184556 68.497851
0.4950000000 34.465639 68.948251
0.4960000000 34.747428 69.400498
0.4970000000 35.029921 69.854596
0.4980000000 35.313119 70.310547
0.4990000000 35.597019 70.768355
0.5000000000 35.881624 71.228024
0.5010000000 36.166930 71.689556
0.5020000000 36.452939 72.152955
0.5030000000 36.739650 72.618224
0.5040000000 37.027063 73.085367
0.5050000000 37.315176 73.554386
0.5060000000 37.603989 74.025284
0.5070000000 37.893503 74.498066
0.5080000000 38.183717 74.972734
0.5090000000 38.474629 75.449291
0.5100000000 38.766241 75.927741
0.5110000000 39.058550 76.408087
0.5120000000 39.351558 76.890332
0.5130000000 39.645263 77.374480
0.5140000000 39.939665 77.860533
0.5150000000 40.234764 78.348495
0.5160000000 40.530559 78.838369
0.5170000000 40.827049 79.330159
0.5180000000 41.124235 79.823867
0.5190000000 41.422116 80.319497
0.5200000000 41.720691 80.817052
0.5210000000 42.019961 81.316535
0.5220000000 42.319924 81.817949
0.5230000000 42.620580 82.321299
0.5240000000 42.921929 82.826586
0.5250000000 43.223971 83.333814
0.5260000000 43.526704 83.842986
0.5270000000 43.830130 84.354106
0.5280000000 44.134246 84.867177
0.5290000000 44.439053 85.382202
0.5300000000 44.744550 85.899184
0.5310000000 45.050738 86.418126
0.5320000000 45.357614 86.939032
0.5330000000 45.665180 87.461904
0.5340000000 45.973435 87.986747
0.5350000000 46.282378 88.513563
0.5360000000 46.592009 89.042355
0.5370000000 46.902328 89.573127
0.5380000000 47.213334 90.105881
0.5390000000 47.525026 90.640622
0.5400000000 47.837405 91.177352
0.5410000000 48.150470 91.716074
0.5420000000 48.464220 92.256792
0.5430000000 48.778655 92.799508
0.5440000000 49.093776 93.344227
0.5450000000 49.409580 93.890951
0.5460000000 49.726069 94.439683
0.5470000000 50.043241 94.990427
0.5480000000 50.361097 95.543185
0.5490000000 50.679635 96.097962
0.5500000000 50.998856 96.654759
0.5510000000 51.318759 97.213581
0.5520000000 51.639343 97.774430
0.5530000000 51.960609 98.337310
0.5540000000 52.282556 98.902224
0.5550000000 52.605183 99.469175
0.5560000000 52.928491 100.038166
0.5570000000 53.252478 100.609201
0.5580000000 53.577145 101.182282
0.5590000000 53.902491 101.757413
0.5600000000 54.228516 102.334596
0.5610000000 54.555219 102.913836
0.5620000000 54.882600 103.495135
0.5630000000 55.210658 104.078497
0.5640000000 55.539394 104.663924
0.5650000000 55.868806 105.251420
0.5660000000 56.198895 105.840988
0.5670000000 56.529661 106.432631
0.5680000000 56.861101 107.026353
0.5690000000 57.193218 107.622155
0.5700000000 57.526009 108.220043
0.5710000000 57.859475 108.820018
0.5720000000 58.193616 109.422084
0.5730000000 58.528430 110.026244
0.5740000000 58.863918 110.632502
0.5750000000 59.200079 111.240860
0.5760000000 59.536913 111.851321
0.5770000000 59.874420 112.463890
0.5780000000 60.212599 113.078568
0.5790000000 60.551449 113.695359
0.5800000000 60.890972 114.314266
0.5810000000 61.231165 114.935293
0.5820000000 61.572029 115.558442
0.5830000000 61.913563 116.183717
0.5840000000 62.255768 116.811121
0.5850000000 62.598642 117.440657
0.5860000000 62.942186 118.072327
0.5870000000 63.286399 118.706137
0.5880000000 63.631281 119.342087
0.5890000000 63.976831 119.980182
0.5900000000 64.323049 120.620424
0.5910000000 64.669934 121.262818
0.5920000000 65.017487 121.907365
0.5930000000 65.365707 122.554070
0.5940000000 65.714594 123.202935
0.5950000000 66.064147 123.853963
0.5960000000 66.414367 124.507157
0.5970000000 66.765251 125.162522
0.5980000000 67.116802 125.820059
0.5990000000 67.469017 126.479772
0.6000000000 67.821897 127.141664
0.6010000000 68.175441 127.805738
