# Homogenous matter with Skyrme BSk31
# den [fm-3], E/A [MeV], Press [MeV.fm-3] 
0.0010000000 1.016992 0.000619
0.0020000000 1.540736 0.001812
0.0030000000 1.949273 0.003341
0.0040000000 2.292691 0.005103
0.0050000000 2.591920 0.007034
0.0060000000 2.858281 0.009090
0.0070000000 3.098794 0.011236
0.0080000000 3.318198 0.013444
0.0090000000 3.519890 0.015693
0.0100000000 3.706416 0.017964
0.0110000000 3.879745 0.020241
0.0120000000 4.041444 0.022512
0.0130000000 4.192789 0.024764
0.0140000000 4.334833 0.026989
0.0150000000 4.468463 0.029179
0.0160000000 4.594432 0.031325
0.0170000000 4.713391 0.033422
0.0180000000 4.825904 0.035465
0.0190000000 4.932464 0.037448
0.0200000000 5.033511 0.039369
0.0210000000 5.129432 0.041224
0.0220000000 5.220575 0.043009
0.0230000000 5.307255 0.044724
0.0240000000 5.389753 0.046366
0.0250000000 5.468329 0.047933
0.0260000000 5.543215 0.049426
0.0270000000 5.614629 0.050843
0.0280000000 5.682767 0.052185
0.0290000000 5.747811 0.053450
0.0300000000 5.809931 0.054640
0.0310000000 5.869284 0.055755
0.0320000000 5.926014 0.056796
0.0330000000 5.980257 0.057764
0.0340000000 6.032141 0.058660
0.0350000000 6.081784 0.059487
0.0360000000 6.129298 0.060244
0.0370000000 6.174788 0.060935
0.0380000000 6.218351 0.061561
0.0390000000 6.260083 0.062125
0.0400000000 6.300070 0.062629
0.0410000000 6.338397 0.063076
0.0420000000 6.375141 0.063467
0.0430000000 6.410379 0.063807
0.0440000000 6.444182 0.064097
0.0450000000 6.476617 0.064341
0.0460000000 6.507749 0.064542
0.0470000000 6.537641 0.064704
0.0480000000 6.566350 0.064829
0.0490000000 6.593934 0.064921
0.0500000000 6.620446 0.064984
0.0510000000 6.645938 0.065022
0.0520000000 6.670460 0.065037
0.0530000000 6.694058 0.065035
0.0540000000 6.716780 0.065019
0.0550000000 6.738667 0.064993
0.0560000000 6.759764 0.064961
0.0570000000 6.780110 0.064928
0.0580000000 6.799745 0.064897
0.0590000000 6.818705 0.064873
0.0600000000 6.837029 0.064860
0.0610000000 6.854750 0.064864
0.0620000000 6.871904 0.064887
0.0630000000 6.888521 0.064936
0.0640000000 6.904636 0.065014
0.0650000000 6.920277 0.065127
0.0660000000 6.935475 0.065279
0.0670000000 6.950258 0.065475
0.0680000000 6.964655 0.065720
0.0690000000 6.978693 0.066019
0.0700000000 6.992397 0.066377
0.0710000000 7.005794 0.066799
0.0720000000 7.018908 0.067290
0.0730000000 7.031763 0.067855
0.0740000000 7.044382 0.068499
0.0750000000 7.056788 0.069228
0.0760000000 7.069003 0.070047
0.0770000000 7.081050 0.070962
0.0780000000 7.092948 0.071977
0.0790000000 7.104717 0.073098
0.0800000000 7.116379 0.074331
0.0810000000 7.127952 0.075681
0.0820000000 7.139455 0.077153
0.0830000000 7.150907 0.078754
0.0840000000 7.162325 0.080488
0.0850000000 7.173727 0.082362
0.0860000000 7.185129 0.084381
0.0870000000 7.196550 0.086550
0.0880000000 7.208004 0.088877
0.0890000000 7.219509 0.091365
0.0900000000 7.231079 0.094022
0.0910000000 7.242729 0.096853
0.0920000000 7.254475 0.099864
0.0930000000 7.266331 0.103061
0.0940000000 7.278312 0.106450
0.0950000000 7.290431 0.110036
0.0960000000 7.302701 0.113826
0.0970000000 7.315137 0.117826
0.0980000000 7.327751 0.122042
0.0990000000 7.340556 0.126480
0.1000000000 7.353565 0.131146
0.1010000000 7.366789 0.136046
0.1020000000 7.380242 0.141186
0.1030000000 7.393934 0.146573
0.1040000000 7.407877 0.152213
0.1050000000 7.422083 0.158111
0.1060000000 7.436563 0.164275
0.1070000000 7.451328 0.170711
0.1080000000 7.466388 0.177424
0.1090000000 7.481754 0.184422
0.1100000000 7.497436 0.191710
0.1110000000 7.513445 0.199295
0.1120000000 7.529790 0.207183
0.1130000000 7.546481 0.215382
0.1140000000 7.563528 0.223896
0.1150000000 7.580940 0.232733
0.1160000000 7.598727 0.241899
0.1170000000 7.616898 0.251400
0.1180000000 7.635460 0.261244
0.1190000000 7.654425 0.271437
0.1200000000 7.673799 0.281984
0.1210000000 7.693592 0.292894
0.1220000000 7.713812 0.304172
0.1230000000 7.734467 0.315825
0.1240000000 7.755566 0.327860
0.1250000000 7.777115 0.340282
0.1260000000 7.799124 0.353100
0.1270000000 7.821600 0.366320
0.1280000000 7.844551 0.379948
0.1290000000 7.867983 0.393991
0.1300000000 7.891905 0.408456
0.1310000000 7.916323 0.423349
0.1320000000 7.941246 0.438678
0.1330000000 7.966679 0.454448
0.1340000000 7.992630 0.470668
0.1350000000 8.019106 0.487343
0.1360000000 8.046113 0.504481
0.1370000000 8.073658 0.522089
0.1380000000 8.101748 0.540172
0.1390000000 8.130389 0.558739
0.1400000000 8.159588 0.577795
0.1410000000 8.189350 0.597349
0.1420000000 8.219682 0.617406
0.1430000000 8.250591 0.637974
0.1440000000 8.282081 0.659060
0.1450000000 8.314159 0.680671
0.1460000000 8.346832 0.702813
0.1470000000 8.380104 0.725493
0.1480000000 8.413981 0.748719
0.1490000000 8.448469 0.772498
0.1500000000 8.483574 0.796836
0.1510000000 8.519301 0.821741
0.1520000000 8.555655 0.847220
0.1530000000 8.592642 0.873279
0.1540000000 8.630267 0.899926
0.1550000000 8.668536 0.927168
0.1560000000 8.707453 0.955012
0.1570000000 8.747023 0.983465
0.1580000000 8.787252 1.012535
0.1590000000 8.828144 1.042227
0.1600000000 8.869705 1.072550
0.1610000000 8.911939 1.103511
0.1620000000 8.954851 1.135116
0.1630000000 8.998445 1.167373
0.1640000000 9.042727 1.200290
0.1650000000 9.087701 1.233872
0.1660000000 9.133371 1.268128
0.1670000000 9.179743 1.303065
0.1680000000 9.226819 1.338690
0.1690000000 9.274606 1.375010
0.1700000000 9.323107 1.412032
0.1710000000 9.372326 1.449764
0.1720000000 9.422268 1.488213
0.1730000000 9.472936 1.527385
0.1740000000 9.524336 1.567290
0.1750000000 9.576471 1.607933
0.1760000000 9.629346 1.649322
0.1770000000 9.682963 1.691465
0.1780000000 9.737328 1.734368
0.1790000000 9.792443 1.778039
0.1800000000 9.848314 1.822485
0.1810000000 9.904944 1.867715
0.1820000000 9.962336 1.913734
0.1830000000 10.020495 1.960550
0.1840000000 10.079423 2.008172
0.1850000000 10.139126 2.056605
0.1860000000 10.199606 2.105858
0.1870000000 10.260867 2.155938
0.1880000000 10.322913 2.206852
0.1890000000 10.385747 2.258608
0.1900000000 10.449372 2.311213
0.1910000000 10.513793 2.364674
0.1920000000 10.579012 2.419000
0.1930000000 10.645033 2.474197
0.1940000000 10.711860 2.530273
0.1950000000 10.779495 2.587235
0.1960000000 10.847941 2.645091
0.1970000000 10.917203 2.703848
0.1980000000 10.987284 2.763514
0.1990000000 11.058186 2.824097
0.2000000000 11.129912 2.885603
0.2010000000 11.202467 2.948040
0.2020000000 11.275852 3.011417
0.2030000000 11.350072 3.075739
0.2040000000 11.425129 3.141015
0.2050000000 11.501025 3.207253
0.2060000000 11.577765 3.274459
0.2070000000 11.655351 3.342642
0.2080000000 11.733786 3.411809
0.2090000000 11.813072 3.481968
0.2100000000 11.893214 3.553125
0.2110000000 11.974213 3.625290
0.2120000000 12.056072 3.698468
0.2130000000 12.138795 3.772669
0.2140000000 12.222383 3.847898
0.2150000000 12.306841 3.924165
0.2160000000 12.392170 4.001477
0.2170000000 12.478373 4.079840
0.2180000000 12.565453 4.159264
0.2190000000 12.653412 4.239755
0.2200000000 12.742254 4.321321
0.2210000000 12.831980 4.403970
0.2220000000 12.922594 4.487709
0.2230000000 13.014097 4.572547
0.2240000000 13.106493 4.658490
0.2250000000 13.199784 4.745546
0.2260000000 13.293972 4.833724
0.2270000000 13.389061 4.923030
0.2280000000 13.485051 5.013472
0.2290000000 13.581947 5.105059
0.2300000000 13.679749 5.197797
0.2310000000 13.778461 5.291695
0.2320000000 13.878086 5.386759
0.2330000000 13.978624 5.482999
0.2340000000 14.080079 5.580421
0.2350000000 14.182454 5.679034
0.2360000000 14.285749 5.778844
0.2370000000 14.389968 5.879860
0.2380000000 14.495113 5.982090
0.2390000000 14.601186 6.085541
0.2400000000 14.708189 6.190221
0.2410000000 14.816125 6.296137
0.2420000000 14.924995 6.403298
0.2430000000 15.034803 6.511711
0.2440000000 15.145549 6.621384
0.2450000000 15.257236 6.732324
0.2460000000 15.369867 6.844540
0.2470000000 15.483443 6.958040
0.2480000000 15.597966 7.072830
0.2490000000 15.713439 7.188919
0.2500000000 15.829864 7.306315
0.2510000000 15.947242 7.425025
0.2520000000 16.065576 7.545058
0.2530000000 16.184867 7.666420
0.2540000000 16.305118 7.789120
0.2550000000 16.426331 7.913166
0.2560000000 16.548508 8.038566
0.2570000000 16.671649 8.165326
0.2580000000 16.795759 8.293456
0.2590000000 16.920838 8.422963
0.2600000000 17.046888 8.553854
0.2610000000 17.173911 8.686138
0.2620000000 17.301909 8.819823
0.2630000000 17.430884 8.954916
0.2640000000 17.560838 9.091425
0.2650000000 17.691773 9.229358
0.2660000000 17.823690 9.368723
0.2670000000 17.956591 9.509528
0.2680000000 18.090479 9.651781
0.2690000000 18.225354 9.795489
0.2700000000 18.361219 9.940660
0.2710000000 18.498075 10.087303
0.2720000000 18.635924 10.235425
0.2730000000 18.774768 10.385034
0.2740000000 18.914609 10.536138
0.2750000000 19.055448 10.688745
0.2760000000 19.197287 10.842862
0.2770000000 19.340128 10.998499
0.2780000000 19.483972 11.155661
0.2790000000 19.628821 11.314359
0.2800000000 19.774677 11.474599
0.2810000000 19.921541 11.636389
0.2820000000 20.069415 11.799737
0.2830000000 20.218301 11.964652
0.2840000000 20.368200 12.131141
0.2850000000 20.519113 12.299212
0.2860000000 20.671043 12.468873
0.2870000000 20.823991 12.640132
0.2880000000 20.977958 12.812997
0.2890000000 21.132947 12.987475
0.2900000000 21.288958 13.163576
0.2910000000 21.445993 13.341307
0.2920000000 21.604054 13.520675
0.2930000000 21.763142 13.701689
0.2940000000 21.923259 13.884357
0.2950000000 22.084406 14.068686
0.2960000000 22.246585 14.254685
0.2970000000 22.409796 14.442362
0.2980000000 22.574043 14.631724
0.2990000000 22.739325 14.822780
0.3000000000 22.905645 15.015538
0.3010000000 23.073005 15.210005
0.3020000000 23.241404 15.406190
0.3030000000 23.410845 15.604100
0.3040000000 23.581330 15.803744
0.3050000000 23.752859 16.005130
0.3060000000 23.925434 16.208266
0.3070000000 24.099057 16.413159
0.3080000000 24.273728 16.619817
0.3090000000 24.449450 16.828250
0.3100000000 24.626223 17.038464
0.3110000000 24.804049 17.250468
0.3120000000 24.982929 17.464270
0.3130000000 25.162865 17.679877
0.3140000000 25.343857 17.897299
0.3150000000 25.525908 18.116542
0.3160000000 25.709019 18.337615
0.3170000000 25.893190 18.560527
0.3180000000 26.078423 18.785284
0.3190000000 26.264720 19.011895
0.3200000000 26.452081 19.240369
0.3210000000 26.640509 19.470713
0.3220000000 26.830003 19.702935
0.3230000000 27.020567 19.937043
0.3240000000 27.212199 20.173046
0.3250000000 27.404903 20.410951
0.3260000000 27.598679 20.650767
0.3270000000 27.793529 20.892502
0.3280000000 27.989453 21.136163
0.3290000000 28.186453 21.381759
0.3300000000 28.384530 21.629298
0.3310000000 28.583686 21.878788
0.3320000000 28.783921 22.130237
0.3330000000 28.985237 22.383653
0.3340000000 29.187634 22.639044
0.3350000000 29.391115 22.896419
0.3360000000 29.595679 23.155785
0.3370000000 29.801330 23.417151
0.3380000000 30.008066 23.680524
0.3390000000 30.215890 23.945913
0.3400000000 30.424803 24.213326
0.3410000000 30.634806 24.482771
0.3420000000 30.845900 24.754256
0.3430000000 31.058087 25.027790
0.3440000000 31.271366 25.303379
0.3450000000 31.485740 25.581034
0.3460000000 31.701210 25.860760
0.3470000000 31.917776 26.142568
0.3480000000 32.135439 26.426464
0.3490000000 32.354202 26.712458
0.3500000000 32.574064 27.000556
0.3510000000 32.795028 27.290768
0.3520000000 33.017093 27.583101
0.3530000000 33.240262 27.877564
0.3540000000 33.464534 28.174165
0.3550000000 33.689912 28.472911
0.3560000000 33.916396 28.773811
0.3570000000 34.143987 29.076874
0.3580000000 34.372686 29.382107
0.3590000000 34.602495 29.689518
0.3600000000 34.833414 29.999117
0.3610000000 35.065445 30.310910
0.3620000000 35.298588 30.624905
0.3630000000 35.532844 30.941113
0.3640000000 35.768215 31.259539
0.3650000000 36.004701 31.580193
0.3660000000 36.242303 31.903082
0.3670000000 36.481023 32.228216
0.3680000000 36.720861 32.555601
0.3690000000 36.961818 32.885247
0.3700000000 37.203896 33.217161
0.3710000000 37.447095 33.551352
0.3720000000 37.691416 33.887827
0.3730000000 37.936860 34.226596
0.3740000000 38.183429 34.567665
0.3750000000 38.431122 34.911044
0.3760000000 38.679942 35.256741
0.3770000000 38.929888 35.604763
0.3780000000 39.180962 35.955119
0.3790000000 39.433166 36.307818
0.3800000000 39.686498 36.662867
0.3810000000 39.940962 37.020274
0.3820000000 40.196557 37.380048
0.3830000000 40.453284 37.742197
0.3840000000 40.711145 38.106730
0.3850000000 40.970140 38.473653
0.3860000000 41.230270 38.842977
0.3870000000 41.491537 39.214708
0.3880000000 41.753940 39.588856
0.3890000000 42.017481 39.965428
0.3900000000 42.282161 40.344432
0.3910000000 42.547980 40.725877
0.3920000000 42.814940 41.109771
0.3930000000 43.083041 41.496123
0.3940000000 43.352284 41.884939
0.3950000000 43.622670 42.276230
0.3960000000 43.894200 42.670003
0.3970000000 44.166875 43.066265
0.3980000000 44.440696 43.465027
0.3990000000 44.715663 43.866294
0.4000000000 44.991777 44.270077
0.4010000000 45.269039 44.676383
0.4020000000 45.547450 45.085221
0.4030000000 45.827011 45.496598
0.4040000000 46.107722 45.910523
0.4050000000 46.389585 46.327004
0.4060000000 46.672600 46.746050
0.4070000000 46.956768 47.167668
0.4080000000 47.242089 47.591867
0.4090000000 47.528566 48.018656
0.4100000000 47.816197 48.448042
0.4110000000 48.104985 48.880034
0.4120000000 48.394930 49.314640
0.4130000000 48.686033 49.751868
0.4140000000 48.978294 50.191727
0.4150000000 49.271714 50.634225
0.4160000000 49.566295 51.079369
0.4170000000 49.862036 51.527169
0.4180000000 50.158940 51.977633
0.4190000000 50.457005 52.430769
0.4200000000 50.756234 52.886585
0.4210000000 51.056626 53.345090
0.4220000000 51.358184 53.806291
0.4230000000 51.660907 54.270198
0.4240000000 51.964796 54.736818
0.4250000000 52.269852 55.206160
0.4260000000 52.576075 55.678231
0.4270000000 52.883467 56.153041
0.4280000000 53.192028 56.630598
0.4290000000 53.501759 57.110909
0.4300000000 53.812661 57.593983
0.4310000000 54.124734 58.079829
0.4320000000 54.437979 58.568455
0.4330000000 54.752397 59.059869
0.4340000000 55.067988 59.554079
0.4350000000 55.384754 60.051094
0.4360000000 55.702694 60.550922
0.4370000000 56.021810 61.053571
0.4380000000 56.342103 61.559050
0.4390000000 56.663572 62.067367
0.4400000000 56.986219 62.578530
0.4410000000 57.310045 63.092548
0.4420000000 57.635049 63.609428
0.4430000000 57.961234 64.129180
0.4440000000 58.288599 64.651811
0.4450000000 58.617145 65.177331
0.4460000000 58.946873 65.705746
0.4470000000 59.277783 66.237066
0.4480000000 59.609877 66.771298
0.4490000000 59.943154 67.308452
0.4500000000 60.277616 67.848536
0.4510000000 60.613263 68.391557
0.4520000000 60.950096 68.937524
0.4530000000 61.288116 69.486446
0.4540000000 61.627323 70.038331
0.4550000000 61.967717 70.593186
0.4560000000 62.309300 71.151022
0.4570000000 62.652073 71.711845
0.4580000000 62.996034 72.275664
0.4590000000 63.341187 72.842488
0.4600000000 63.687530 73.412325
0.4610000000 64.035065 73.985183
0.4620000000 64.383793 74.561071
0.4630000000 64.733713 75.139996
0.4640000000 65.084827 75.721968
0.4650000000 65.437135 76.306995
0.4660000000 65.790638 76.895084
0.4670000000 66.145337 77.486245
0.4680000000 66.501231 78.080485
0.4690000000 66.858323 78.677814
0.4700000000 67.216611 79.278239
0.4710000000 67.576098 79.881769
0.4720000000 67.936783 80.488411
0.4730000000 68.298667 81.098176
0.4740000000 68.661751 81.711070
0.4750000000 69.026035 82.327103
0.4760000000 69.391521 82.946282
0.4770000000 69.758207 83.568616
0.4780000000 70.126096 84.194113
0.4790000000 70.495188 84.822782
0.4800000000 70.865483 85.454631
0.4810000000 71.236982 86.089669
0.4820000000 71.609685 86.727903
0.4830000000 71.983594 87.369343
0.4840000000 72.358708 88.013996
0.4850000000 72.735028 88.661871
0.4860000000 73.112555 89.312977
0.4870000000 73.491290 89.967321
0.4880000000 73.871232 90.624913
0.4890000000 74.252383 91.285759
0.4900000000 74.634744 91.949870
0.4910000000 75.018313 92.617253
0.4920000000 75.403093 93.287917
0.4930000000 75.789084 93.961869
0.4940000000 76.176286 94.639120
0.4950000000 76.564701 95.319675
0.4960000000 76.954327 96.003546
0.4970000000 77.345167 96.690738
0.4980000000 77.737220 97.381262
0.4990000000 78.130487 98.075125
0.5000000000 78.524969 98.772336
0.5010000000 78.920666 99.472903
0.5020000000 79.317579 100.176835
0.5030000000 79.715708 100.884140
0.5040000000 80.115053 101.594826
0.5050000000 80.515617 102.308902
0.5060000000 80.917398 103.026376
0.5070000000 81.320397 103.747257
0.5080000000 81.724616 104.471553
0.5090000000 82.130053 105.199272
0.5100000000 82.536711 105.930423
0.5110000000 82.944590 106.665014
0.5120000000 83.353689 107.403054
0.5130000000 83.764010 108.144551
0.5140000000 84.175553 108.889513
0.5150000000 84.588319 109.637950
0.5160000000 85.002308 110.389868
0.5170000000 85.417520 111.145278
0.5180000000 85.833957 111.904186
0.5190000000 86.251618 112.666602
0.5200000000 86.670504 113.432535
0.5210000000 87.090616 114.201991
0.5220000000 87.511954 114.974980
0.5230000000 87.934519 115.751511
0.5240000000 88.358311 116.531591
0.5250000000 88.783330 117.315230
0.5260000000 89.209578 118.102434
0.5270000000 89.637054 118.893214
0.5280000000 90.065759 119.687577
0.5290000000 90.495694 120.485533
0.5300000000 90.926860 121.287088
0.5310000000 91.359255 122.092252
0.5320000000 91.792882 122.901033
0.5330000000 92.227740 123.713439
0.5340000000 92.663831 124.529480
0.5350000000 93.101153 125.349163
0.5360000000 93.539709 126.172497
0.5370000000 93.979499 126.999490
0.5380000000 94.420522 127.830151
0.5390000000 94.862779 128.664488
0.5400000000 95.306272 129.502510
0.5410000000 95.751000 130.344224
0.5420000000 96.196963 131.189641
0.5430000000 96.644163 132.038767
0.5440000000 97.092600 132.891611
0.5450000000 97.542274 133.748183
0.5460000000 97.993186 134.608489
0.5470000000 98.445335 135.472539
0.5480000000 98.898724 136.340342
0.5490000000 99.353351 137.211905
0.5500000000 99.809218 138.087237
0.5510000000 100.266325 138.966347
0.5520000000 100.724672 139.849243
0.5530000000 101.184260 140.735933
0.5540000000 101.645089 141.626426
0.5550000000 102.107160 142.520731
0.5560000000 102.570473 143.418855
0.5570000000 103.035029 144.320807
0.5580000000 103.500828 145.226596
0.5590000000 103.967871 146.136231
0.5600000000 104.436157 147.049719
0.5610000000 104.905688 147.967069
0.5620000000 105.376464 148.888289
0.5630000000 105.848485 149.813389
0.5640000000 106.321751 150.742376
0.5650000000 106.796264 151.675259
0.5660000000 107.272023 152.612047
0.5670000000 107.749029 153.552747
0.5680000000 108.227283 154.497369
0.5690000000 108.706784 155.445921
0.5700000000 109.187534 156.398410
0.5710000000 109.669533 157.354847
0.5720000000 110.152780 158.315239
0.5730000000 110.637277 159.279594
0.5740000000 111.123024 160.247922
0.5750000000 111.610021 161.220231
0.5760000000 112.098269 162.196528
0.5770000000 112.587769 163.176823
0.5780000000 113.078520 164.161124
0.5790000000 113.570522 165.149440
0.5800000000 114.063778 166.141779
0.5810000000 114.558286 167.138149
0.5820000000 115.054047 168.138559
0.5830000000 115.551062 169.143018
0.5840000000 116.049331 170.151534
0.5850000000 116.548855 171.164115
0.5860000000 117.049633 172.180770
0.5870000000 117.551666 173.201507
0.5880000000 118.054956 174.226336
0.5890000000 118.559501 175.255264
0.5900000000 119.065303 176.288299
0.5910000000 119.572361 177.325451
0.5920000000 120.080677 178.366728
0.5930000000 120.590250 179.412138
0.5940000000 121.101082 180.461690
0.5950000000 121.613171 181.515392
0.5960000000 122.126520 182.573253
0.5970000000 122.641128 183.635281
0.5980000000 123.156995 184.701485
0.5990000000 123.674123 185.771874
0.6000000000 124.192510 186.846455
0.6010000000 124.712158 187.925237
0.6020000000 125.233068 189.008229
0.6030000000 125.755239 190.095440
0.6040000000 126.278672 191.186877
0.6050000000 126.803367 192.282549
0.6060000000 127.329324 193.382465
0.6070000000 127.856545 194.486634
0.6080000000 128.385029 195.595063
0.6090000000 128.914777 196.707761
0.6100000000 129.445789 197.824737
0.6110000000 129.978065 198.946000
0.6120000000 130.511606 200.071557
