# Homogenous matter with Skyrme BSkG1
# den [fm-3], E/A [MeV], Press [MeV.fm-3] 
0.0010000000 0.141955 -0.000079
0.0020000000 0.020141 -0.000608
0.0030000000 -0.148128 -0.001633
0.0040000000 -0.337774 -0.003149
0.0050000000 -0.539151 -0.005140
0.0060000000 -0.747423 -0.007591
0.0070000000 -0.959805 -0.010485
0.0080000000 -1.174550 -0.013803
0.0090000000 -1.390494 -0.017530
0.0100000000 -1.606826 -0.021648
0.0110000000 -1.822965 -0.026141
0.0120000000 -2.038483 -0.030995
0.0130000000 -2.253060 -0.036194
0.0140000000 -2.466452 -0.041724
0.0150000000 -2.678470 -0.047569
0.0160000000 -2.888969 -0.053718
0.0170000000 -3.097835 -0.060156
0.0180000000 -3.304978 -0.066870
0.0190000000 -3.510330 -0.073848
0.0200000000 -3.713835 -0.081078
0.0210000000 -3.915452 -0.088546
0.0220000000 -4.115147 -0.096243
0.0230000000 -4.312896 -0.104155
0.0240000000 -4.508681 -0.112273
0.0250000000 -4.702490 -0.120584
0.0260000000 -4.894313 -0.129079
0.0270000000 -5.084146 -0.137746
0.0280000000 -5.271988 -0.146576
0.0290000000 -5.457838 -0.155557
0.0300000000 -5.641699 -0.164681
0.0310000000 -5.823576 -0.173938
0.0320000000 -6.003475 -0.183317
0.0330000000 -6.181402 -0.192809
0.0340000000 -6.357366 -0.202406
0.0350000000 -6.531376 -0.212097
0.0360000000 -6.703440 -0.221874
0.0370000000 -6.873569 -0.231729
0.0380000000 -7.041774 -0.241651
0.0390000000 -7.208065 -0.251634
0.0400000000 -7.372454 -0.261667
0.0410000000 -7.534952 -0.271744
0.0420000000 -7.695570 -0.281855
0.0430000000 -7.854321 -0.291992
0.0440000000 -8.011215 -0.302148
0.0450000000 -8.166266 -0.312314
0.0460000000 -8.319484 -0.322483
0.0470000000 -8.470882 -0.332647
0.0480000000 -8.620472 -0.342798
0.0490000000 -8.768264 -0.352929
0.0500000000 -8.914272 -0.363032
0.0510000000 -9.058507 -0.373100
0.0520000000 -9.200980 -0.383125
0.0530000000 -9.341703 -0.393101
0.0540000000 -9.480687 -0.403020
0.0550000000 -9.617943 -0.412875
0.0560000000 -9.753484 -0.422659
0.0570000000 -9.887320 -0.432365
0.0580000000 -10.019461 -0.441987
0.0590000000 -10.149920 -0.451517
0.0600000000 -10.278706 -0.460949
0.0610000000 -10.405830 -0.470276
0.0620000000 -10.531303 -0.479492
0.0630000000 -10.655135 -0.488590
0.0640000000 -10.777336 -0.497563
0.0650000000 -10.897917 -0.506406
0.0660000000 -11.016887 -0.515111
0.0670000000 -11.134256 -0.523673
0.0680000000 -11.250034 -0.532086
0.0690000000 -11.364231 -0.540342
0.0700000000 -11.476856 -0.548436
0.0710000000 -11.587919 -0.556363
0.0720000000 -11.697428 -0.564115
0.0730000000 -11.805393 -0.571687
0.0740000000 -11.911823 -0.579073
0.0750000000 -12.016727 -0.586267
0.0760000000 -12.120113 -0.593263
0.0770000000 -12.221991 -0.600055
0.0780000000 -12.322368 -0.606639
0.0790000000 -12.421253 -0.613007
0.0800000000 -12.518655 -0.619154
0.0810000000 -12.614582 -0.625075
0.0820000000 -12.709041 -0.630764
0.0830000000 -12.802041 -0.636215
0.0840000000 -12.893590 -0.641423
0.0850000000 -12.983696 -0.646383
0.0860000000 -13.072366 -0.651089
0.0870000000 -13.159608 -0.655536
0.0880000000 -13.245429 -0.659718
0.0890000000 -13.329837 -0.663629
0.0900000000 -13.412839 -0.667266
0.0910000000 -13.494443 -0.670622
0.0920000000 -13.574655 -0.673692
0.0930000000 -13.653482 -0.676471
0.0940000000 -13.730932 -0.678954
0.0950000000 -13.807012 -0.681136
0.0960000000 -13.881728 -0.683012
0.0970000000 -13.955087 -0.684576
0.0980000000 -14.027095 -0.685823
0.0990000000 -14.097760 -0.686749
0.1000000000 -14.167087 -0.687349
0.1010000000 -14.235084 -0.687618
0.1020000000 -14.301755 -0.687550
0.1030000000 -14.367109 -0.687141
0.1040000000 -14.431150 -0.686386
0.1050000000 -14.493885 -0.685281
0.1060000000 -14.555320 -0.683819
0.1070000000 -14.615460 -0.681998
0.1080000000 -14.674313 -0.679811
0.1090000000 -14.731883 -0.677255
0.1100000000 -14.788177 -0.674324
0.1110000000 -14.843200 -0.671013
0.1120000000 -14.896958 -0.667319
0.1130000000 -14.949456 -0.663237
0.1140000000 -15.000699 -0.658761
0.1150000000 -15.050694 -0.653888
0.1160000000 -15.099446 -0.648613
0.1170000000 -15.146960 -0.642931
0.1180000000 -15.193241 -0.636838
0.1190000000 -15.238295 -0.630329
0.1200000000 -15.282126 -0.623400
0.1210000000 -15.324740 -0.616047
0.1220000000 -15.366142 -0.608264
0.1230000000 -15.406337 -0.600049
0.1240000000 -15.445329 -0.591395
0.1250000000 -15.483125 -0.582300
0.1260000000 -15.519728 -0.572758
0.1270000000 -15.555143 -0.562765
0.1280000000 -15.589375 -0.552317
0.1290000000 -15.622429 -0.541411
0.1300000000 -15.654310 -0.530040
0.1310000000 -15.685021 -0.518202
0.1320000000 -15.714569 -0.505892
0.1330000000 -15.742956 -0.493106
0.1340000000 -15.770188 -0.479840
0.1350000000 -15.796269 -0.466089
0.1360000000 -15.821204 -0.451850
0.1370000000 -15.844996 -0.437118
0.1380000000 -15.867650 -0.421889
0.1390000000 -15.889171 -0.406160
0.1400000000 -15.909562 -0.389925
0.1410000000 -15.928828 -0.373182
0.1420000000 -15.946972 -0.355925
0.1430000000 -15.964000 -0.338152
0.1440000000 -15.979915 -0.319857
0.1450000000 -15.994720 -0.301038
0.1460000000 -16.008421 -0.281689
0.1470000000 -16.021021 -0.261808
0.1480000000 -16.032523 -0.241390
0.1490000000 -16.042933 -0.220431
0.1500000000 -16.052252 -0.198928
0.1510000000 -16.060487 -0.176876
0.1520000000 -16.067639 -0.154271
0.1530000000 -16.073713 -0.131111
0.1540000000 -16.078713 -0.107390
0.1550000000 -16.082642 -0.083106
0.1560000000 -16.085504 -0.058254
0.1570000000 -16.087303 -0.032830
0.1580000000 -16.088042 -0.006832
0.1590000000 -16.087724 0.019746
0.1600000000 -16.086354 0.046907
0.1610000000 -16.083934 0.074654
0.1620000000 -16.080468 0.102991
0.1630000000 -16.075960 0.131922
0.1640000000 -16.070413 0.161451
0.1650000000 -16.063830 0.191581
0.1660000000 -16.056214 0.222316
0.1670000000 -16.047570 0.253660
0.1680000000 -16.037899 0.285616
0.1690000000 -16.027207 0.318188
0.1700000000 -16.015495 0.351379
0.1710000000 -16.002767 0.385193
0.1720000000 -15.989026 0.419635
0.1730000000 -15.974275 0.454706
0.1740000000 -15.958517 0.490411
0.1750000000 -15.941756 0.526754
0.1760000000 -15.923995 0.563737
0.1770000000 -15.905236 0.601365
0.1780000000 -15.885483 0.639641
0.1790000000 -15.864738 0.678569
0.1800000000 -15.843005 0.718151
0.1810000000 -15.820287 0.758392
0.1820000000 -15.796586 0.799295
0.1830000000 -15.771906 0.840863
0.1840000000 -15.746248 0.883100
0.1850000000 -15.719617 0.926009
0.1860000000 -15.692015 0.969594
0.1870000000 -15.663445 1.013858
0.1880000000 -15.633910 1.058805
0.1890000000 -15.603412 1.104438
0.1900000000 -15.571954 1.150759
0.1910000000 -15.539539 1.197774
0.1920000000 -15.506169 1.245484
0.1930000000 -15.471848 1.293894
0.1940000000 -15.436578 1.343006
0.1950000000 -15.400362 1.392825
0.1960000000 -15.363202 1.443353
0.1970000000 -15.325101 1.494593
0.1980000000 -15.286062 1.546550
0.1990000000 -15.246086 1.599225
0.2000000000 -15.205178 1.652624
0.2010000000 -15.163338 1.706748
0.2020000000 -15.120570 1.761601
0.2030000000 -15.076877 1.817186
0.2040000000 -15.032260 1.873507
0.2050000000 -14.986723 1.930567
0.2060000000 -14.940267 1.988368
0.2070000000 -14.892896 2.046915
0.2080000000 -14.844611 2.106211
0.2090000000 -14.795415 2.166257
0.2100000000 -14.745310 2.227059
0.2110000000 -14.694299 2.288619
0.2120000000 -14.642385 2.350940
0.2130000000 -14.589568 2.414025
0.2140000000 -14.535853 2.477877
0.2150000000 -14.481240 2.542500
0.2160000000 -14.425733 2.607897
0.2170000000 -14.369334 2.674070
0.2180000000 -14.312044 2.741024
0.2190000000 -14.253867 2.808760
0.2200000000 -14.194804 2.877283
0.2210000000 -14.134857 2.946595
0.2220000000 -14.074030 3.016699
0.2230000000 -14.012323 3.087599
0.2240000000 -13.949740 3.159297
0.2250000000 -13.886282 3.231796
0.2260000000 -13.821951 3.305101
0.2270000000 -13.756751 3.379212
0.2280000000 -13.690681 3.454134
0.2290000000 -13.623746 3.529870
0.2300000000 -13.555947 3.606423
0.2310000000 -13.487286 3.683795
0.2320000000 -13.417765 3.761990
0.2330000000 -13.347386 3.841011
0.2340000000 -13.276151 3.920860
0.2350000000 -13.204063 4.001540
0.2360000000 -13.131122 4.083056
0.2370000000 -13.057333 4.165409
0.2380000000 -12.982695 4.248602
0.2390000000 -12.907211 4.332639
0.2400000000 -12.830884 4.417522
0.2410000000 -12.753715 4.503255
0.2420000000 -12.675706 4.589839
0.2430000000 -12.596859 4.677279
0.2440000000 -12.517176 4.765577
0.2450000000 -12.436659 4.854736
0.2460000000 -12.355309 4.944759
0.2470000000 -12.273130 5.035648
0.2480000000 -12.190121 5.127407
0.2490000000 -12.106286 5.220039
0.2500000000 -12.021627 5.313546
0.2510000000 -11.936144 5.407931
0.2520000000 -11.849841 5.503198
0.2530000000 -11.762718 5.599348
0.2540000000 -11.674777 5.696385
0.2550000000 -11.586021 5.794311
0.2560000000 -11.496451 5.893131
0.2570000000 -11.406069 5.992845
0.2580000000 -11.314877 6.093457
0.2590000000 -11.222876 6.194970
0.2600000000 -11.130068 6.297387
0.2610000000 -11.036455 6.400711
0.2620000000 -10.942039 6.504944
0.2630000000 -10.846821 6.610088
0.2640000000 -10.750804 6.716148
0.2650000000 -10.653988 6.823125
0.2660000000 -10.556375 6.931022
0.2670000000 -10.457968 7.039843
0.2680000000 -10.358767 7.149589
0.2690000000 -10.258775 7.260265
0.2700000000 -10.157993 7.371871
0.2710000000 -10.056423 7.484411
0.2720000000 -9.954066 7.597889
0.2730000000 -9.850924 7.712305
0.2740000000 -9.746999 7.827664
0.2750000000 -9.642292 7.943968
0.2760000000 -9.536805 8.061220
0.2770000000 -9.430540 8.179422
0.2780000000 -9.323497 8.298577
0.2790000000 -9.215680 8.418688
0.2800000000 -9.107088 8.539757
0.2810000000 -8.997724 8.661787
0.2820000000 -8.887589 8.784781
0.2830000000 -8.776685 8.908741
0.2840000000 -8.665014 9.033671
0.2850000000 -8.552576 9.159572
0.2860000000 -8.439374 9.286447
0.2870000000 -8.325408 9.414300
0.2880000000 -8.210681 9.543132
0.2890000000 -8.095194 9.672946
0.2900000000 -7.978949 9.803745
0.2910000000 -7.861946 9.935532
0.2920000000 -7.744187 10.068309
0.2930000000 -7.625675 10.202078
0.2940000000 -7.506409 10.336843
0.2950000000 -7.386392 10.472606
0.2960000000 -7.265626 10.609369
0.2970000000 -7.144111 10.747136
0.2980000000 -7.021849 10.885908
0.2990000000 -6.898841 11.025688
0.3000000000 -6.775089 11.166479
0.3010000000 -6.650595 11.308284
0.3020000000 -6.525359 11.451104
0.3030000000 -6.399383 11.594943
0.3040000000 -6.272668 11.739803
0.3050000000 -6.145216 11.885687
0.3060000000 -6.017029 12.032597
0.3070000000 -5.888107 12.180535
0.3080000000 -5.758451 12.329505
0.3090000000 -5.628064 12.479509
0.3100000000 -5.496947 12.630548
0.3110000000 -5.365100 12.782627
0.3120000000 -5.232526 12.935747
0.3130000000 -5.099225 13.089910
0.3140000000 -4.965200 13.245120
0.3150000000 -4.830450 13.401379
0.3160000000 -4.694978 13.558689
0.3170000000 -4.558784 13.717052
0.3180000000 -4.421871 13.876472
0.3190000000 -4.284239 14.036951
0.3200000000 -4.145890 14.198491
0.3210000000 -4.006825 14.361095
0.3220000000 -3.867045 14.524764
0.3230000000 -3.726551 14.689503
0.3240000000 -3.585345 14.855312
0.3250000000 -3.443428 15.022195
0.3260000000 -3.300801 15.190154
0.3270000000 -3.157466 15.359191
0.3280000000 -3.013423 15.529309
0.3290000000 -2.868675 15.700510
0.3300000000 -2.723221 15.872797
0.3310000000 -2.577064 16.046172
0.3320000000 -2.430204 16.220638
0.3330000000 -2.282644 16.396196
0.3340000000 -2.134383 16.572850
0.3350000000 -1.985423 16.750602
0.3360000000 -1.835766 16.929454
0.3370000000 -1.685412 17.109408
0.3380000000 -1.534363 17.290468
0.3390000000 -1.382620 17.472635
0.3400000000 -1.230184 17.655911
0.3410000000 -1.077056 17.840300
0.3420000000 -0.923238 18.025803
0.3430000000 -0.768730 18.212423
0.3440000000 -0.613533 18.400162
0.3450000000 -0.457650 18.589023
0.3460000000 -0.301081 18.779008
0.3470000000 -0.143826 18.970119
0.3480000000 0.014112 19.162358
0.3490000000 0.172732 19.355729
0.3500000000 0.332035 19.550233
0.3510000000 0.492017 19.745873
0.3520000000 0.652679 19.942651
0.3530000000 0.814019 20.140569
0.3540000000 0.976037 20.339630
0.3550000000 1.138730 20.539836
0.3560000000 1.302098 20.741189
0.3570000000 1.466140 20.943692
0.3580000000 1.630855 21.147347
0.3590000000 1.796241 21.352157
0.3600000000 1.962298 21.558122
0.3610000000 2.129025 21.765247
0.3620000000 2.296420 21.973533
0.3630000000 2.464482 22.182982
0.3640000000 2.633211 22.393598
0.3650000000 2.802605 22.605381
0.3660000000 2.972663 22.818334
0.3670000000 3.143385 23.032461
0.3680000000 3.314769 23.247762
0.3690000000 3.486814 23.464240
0.3700000000 3.659519 23.681898
0.3710000000 3.832883 23.900737
0.3720000000 4.006905 24.120760
0.3730000000 4.181585 24.341970
0.3740000000 4.356920 24.564368
0.3750000000 4.532911 24.787957
0.3760000000 4.709555 25.012739
0.3770000000 4.886853 25.238716
0.3780000000 5.064802 25.465890
0.3790000000 5.243403 25.694264
0.3800000000 5.422654 25.923840
0.3810000000 5.602554 26.154620
0.3820000000 5.783102 26.386607
0.3830000000 5.964297 26.619802
0.3840000000 6.146138 26.854208
0.3850000000 6.328625 27.089827
0.3860000000 6.511756 27.326661
0.3870000000 6.695530 27.564713
0.3880000000 6.879946 27.803984
0.3890000000 7.065004 28.044477
0.3900000000 7.250702 28.286194
0.3910000000 7.437040 28.529138
0.3920000000 7.624017 28.773309
0.3930000000 7.811630 29.018712
0.3940000000 7.999881 29.265347
0.3950000000 8.188767 29.513218
0.3960000000 8.378289 29.762325
0.3970000000 8.568444 30.012672
0.3980000000 8.759232 30.264260
0.3990000000 8.950652 30.517092
0.4000000000 9.142703 30.771170
0.4010000000 9.335385 31.026496
0.4020000000 9.528696 31.283072
0.4030000000 9.722635 31.540900
0.4040000000 9.917202 31.799983
0.4050000000 10.112395 32.060322
0.4060000000 10.308214 32.321920
0.4070000000 10.504659 32.584779
0.4080000000 10.701727 32.848902
0.4090000000 10.899418 33.114289
0.4100000000 11.097731 33.380944
0.4110000000 11.296666 33.648868
0.4120000000 11.496221 33.918063
0.4130000000 11.696396 34.188533
0.4140000000 11.897190 34.460278
0.4150000000 12.098601 34.733301
0.4160000000 12.300630 35.007604
0.4170000000 12.503275 35.283189
0.4180000000 12.706535 35.560059
0.4190000000 12.910409 35.838215
0.4200000000 13.114897 36.117660
0.4210000000 13.319998 36.398395
0.4220000000 13.525711 36.680422
0.4230000000 13.732035 36.963745
0.4240000000 13.938969 37.248364
0.4250000000 14.146513 37.534283
0.4260000000 14.354665 37.821502
0.4270000000 14.563425 38.110024
0.4280000000 14.772792 38.399852
0.4290000000 14.982765 38.690987
0.4300000000 15.193343 38.983431
0.4310000000 15.404526 39.277187
0.4320000000 15.616313 39.572256
0.4330000000 15.828703 39.868641
0.4340000000 16.041694 40.166343
0.4350000000 16.255287 40.465366
0.4360000000 16.469481 40.765709
0.4370000000 16.684274 41.067377
0.4380000000 16.899666 41.370370
0.4390000000 17.115656 41.674692
0.4400000000 17.332244 41.980343
0.4410000000 17.549428 42.287326
0.4420000000 17.767207 42.595643
0.4430000000 17.985582 42.905297
0.4440000000 18.204551 43.216288
0.4450000000 18.424114 43.528619
0.4460000000 18.644269 43.842293
0.4470000000 18.865016 44.157311
0.4480000000 19.086354 44.473675
0.4490000000 19.308282 44.791387
0.4500000000 19.530800 45.110449
0.4510000000 19.753907 45.430864
0.4520000000 19.977602 45.752633
0.4530000000 20.201884 46.075758
0.4540000000 20.426753 46.400242
0.4550000000 20.652208 46.726085
0.4560000000 20.878248 47.053291
0.4570000000 21.104872 47.381862
0.4580000000 21.332080 47.711798
0.4590000000 21.559870 48.043103
0.4600000000 21.788243 48.375779
0.4610000000 22.017197 48.709826
0.4620000000 22.246732 49.045248
0.4630000000 22.476847 49.382046
0.4640000000 22.707541 49.720222
0.4650000000 22.938814 50.059778
0.4660000000 23.170664 50.400717
0.4670000000 23.403091 50.743039
0.4680000000 23.636095 51.086748
0.4690000000 23.869674 51.431845
0.4700000000 24.103828 51.778332
0.4710000000 24.338557 52.126211
0.4720000000 24.573859 52.475484
0.4730000000 24.809734 52.826152
0.4740000000 25.046180 53.178219
0.4750000000 25.283199 53.531686
0.4760000000 25.520788 53.886554
0.4770000000 25.758947 54.242826
0.4780000000 25.997675 54.600504
0.4790000000 26.236972 54.959590
0.4800000000 26.476836 55.320085
0.4810000000 26.717268 55.681991
0.4820000000 26.958267 56.045311
0.4830000000 27.199831 56.410047
0.4840000000 27.441961 56.776199
0.4850000000 27.684655 57.143771
0.4860000000 27.927913 57.512765
0.4870000000 28.171735 57.883181
0.4880000000 28.416118 58.255022
0.4890000000 28.661064 58.628291
0.4900000000 28.906571 59.002988
0.4910000000 29.152638 59.379116
0.4920000000 29.399265 59.756677
0.4930000000 29.646451 60.135672
0.4940000000 29.894196 60.516104
0.4950000000 30.142498 60.897974
0.4960000000 30.391358 61.281285
0.4970000000 30.640775 61.666038
0.4980000000 30.890747 62.052235
0.4990000000 31.141275 62.439878
0.5000000000 31.392357 62.828969
0.5010000000 31.643993 63.219510
0.5020000000 31.896182 63.611502
0.5030000000 32.148925 64.004949
0.5040000000 32.402219 64.399850
0.5050000000 32.656064 64.796209
0.5060000000 32.910461 65.194028
0.5070000000 33.165407 65.593307
0.5080000000 33.420903 65.994050
0.5090000000 33.676948 66.396257
0.5100000000 33.933542 66.799931
0.5110000000 34.190682 67.205074
0.5120000000 34.448370 67.611687
0.5130000000 34.706605 68.019773
0.5140000000 34.965385 68.429333
0.5150000000 35.224710 68.840369
0.5160000000 35.484580 69.252883
0.5170000000 35.744993 69.666877
0.5180000000 36.005950 70.082353
0.5190000000 36.267450 70.499312
0.5200000000 36.529492 70.917756
0.5210000000 36.792075 71.337688
0.5220000000 37.055199 71.759109
0.5230000000 37.318864 72.182021
0.5240000000 37.583068 72.606425
0.5250000000 37.847811 73.032325
0.5260000000 38.113093 73.459720
0.5270000000 38.378912 73.888614
0.5280000000 38.645269 74.319008
0.5290000000 38.912163 74.750904
0.5300000000 39.179593 75.184304
0.5310000000 39.447558 75.619210
0.5320000000 39.716058 76.055623
0.5330000000 39.985093 76.493545
0.5340000000 40.254661 76.932978
0.5350000000 40.524763 77.373925
0.5360000000 40.795397 77.816386
0.5370000000 41.066563 78.260363
0.5380000000 41.338261 78.705859
0.5390000000 41.610489 79.152875
0.5400000000 41.883248 79.601414
0.5410000000 42.156537 80.051476
0.5420000000 42.430354 80.503063
0.5430000000 42.704701 80.956178
0.5440000000 42.979575 81.410822
0.5450000000 43.254977 81.866998
0.5460000000 43.530906 82.324706
0.5470000000 43.807361 82.783949
0.5480000000 44.084342 83.244728
0.5490000000 44.361848 83.707045
0.5500000000 44.639879 84.170903
0.5510000000 44.918434 84.636302
0.5520000000 45.197512 85.103245
0.5530000000 45.477114 85.571733
0.5540000000 45.757238 86.041768
0.5550000000 46.037884 86.513352
0.5560000000 46.319051 86.986487
0.5570000000 46.600739 87.461175
0.5580000000 46.882947 87.937417
0.5590000000 47.165675 88.415215
0.5600000000 47.448922 88.894570
0.5610000000 47.732688 89.375485
0.5620000000 48.016972 89.857962
0.5630000000 48.301774 90.342002
0.5640000000 48.587092 90.827606
0.5650000000 48.872927 91.314778
0.5660000000 49.159278 91.803517
0.5670000000 49.446145 92.293827
0.5680000000 49.733526 92.785709
0.5690000000 50.021422 93.279165
0.5700000000 50.309831 93.774196
0.5710000000 50.598754 94.270804
0.5720000000 50.888190 94.768991
0.5730000000 51.178138 95.268759
0.5740000000 51.468598 95.770109
0.5750000000 51.759569 96.273044
0.5760000000 52.051050 96.777564
0.5770000000 52.343042 97.283672
0.5780000000 52.635544 97.791370
0.5790000000 52.928555 98.300658
0.5800000000 53.222074 98.811540
0.5810000000 53.516102 99.324016
0.5820000000 53.810637 99.838088
0.5830000000 54.105679 100.353759
0.5840000000 54.401228 100.871030
0.5850000000 54.697283 101.389902
0.5860000000 54.993844 101.910377
0.5870000000 55.290910 102.432457
0.5880000000 55.588480 102.956144
0.5890000000 55.886555 103.481439
0.5900000000 56.185133 104.008345
0.5910000000 56.484214 104.536863
0.5920000000 56.783798 105.066994
0.5930000000 57.083884 105.598740
0.5940000000 57.384471 106.132103
0.5950000000 57.685560 106.667085
0.5960000000 57.987149 107.203688
0.5970000000 58.289239 107.741913
0.5980000000 58.591828 108.281761
0.5990000000 58.894916 108.823235
0.6000000000 59.198504 109.366337
0.6010000000 59.502589 109.911067
0.6020000000 59.807172 110.457428
