# Homogenous matter with Skyrme BSkG2
# den [fm-3], E/A [MeV], Press [MeV.fm-3] 
0.0010000000 0.140974 -0.000080
0.0020000000 0.018314 -0.000611
0.0030000000 -0.150726 -0.001640
0.0040000000 -0.341090 -0.003160
0.0050000000 -0.543140 -0.005157
0.0060000000 -0.752047 -0.007614
0.0070000000 -0.965031 -0.010514
0.0080000000 -1.180348 -0.013839
0.0090000000 -1.396835 -0.017573
0.0100000000 -1.613685 -0.021698
0.0110000000 -1.830318 -0.026200
0.0120000000 -2.046309 -0.031062
0.0130000000 -2.261337 -0.036269
0.0140000000 -2.475160 -0.041806
0.0150000000 -2.687591 -0.047660
0.0160000000 -2.898485 -0.053817
0.0170000000 -3.107728 -0.060263
0.0180000000 -3.315233 -0.066984
0.0190000000 -3.520929 -0.073970
0.0200000000 -3.724764 -0.081206
0.0210000000 -3.926696 -0.088682
0.0220000000 -4.126691 -0.096385
0.0230000000 -4.324727 -0.104303
0.0240000000 -4.520786 -0.112426
0.0250000000 -4.714854 -0.120743
0.0260000000 -4.906925 -0.129242
0.0270000000 -5.096993 -0.137913
0.0280000000 -5.285057 -0.146746
0.0290000000 -5.471118 -0.155730
0.0300000000 -5.655179 -0.164856
0.0310000000 -5.837244 -0.174113
0.0320000000 -6.017320 -0.183493
0.0330000000 -6.195414 -0.192985
0.0340000000 -6.371534 -0.202580
0.0350000000 -6.545688 -0.212269
0.0360000000 -6.717888 -0.222043
0.0370000000 -6.888142 -0.231894
0.0380000000 -7.056463 -0.241811
0.0390000000 -7.222860 -0.251788
0.0400000000 -7.387345 -0.261814
0.0410000000 -7.549930 -0.271882
0.0420000000 -7.710626 -0.281984
0.0430000000 -7.869446 -0.292111
0.0440000000 -8.026400 -0.302256
0.0450000000 -8.181502 -0.312409
0.0460000000 -8.334763 -0.322564
0.0470000000 -8.486195 -0.332713
0.0480000000 -8.635810 -0.342848
0.0490000000 -8.783621 -0.352961
0.0500000000 -8.929638 -0.363045
0.0510000000 -9.073874 -0.373093
0.0520000000 -9.216340 -0.383097
0.0530000000 -9.357049 -0.393050
0.0540000000 -9.496011 -0.402944
0.0550000000 -9.633238 -0.412774
0.0560000000 -9.768742 -0.422530
0.0570000000 -9.902533 -0.432208
0.0580000000 -10.034623 -0.441800
0.0590000000 -10.165022 -0.451298
0.0600000000 -10.293741 -0.460697
0.0610000000 -10.420792 -0.469989
0.0620000000 -10.546184 -0.479169
0.0630000000 -10.669929 -0.488229
0.0640000000 -10.792036 -0.497163
0.0650000000 -10.912515 -0.505964
0.0660000000 -11.031377 -0.514627
0.0670000000 -11.148632 -0.523144
0.0680000000 -11.264289 -0.531510
0.0690000000 -11.378358 -0.539718
0.0700000000 -11.490849 -0.547763
0.0710000000 -11.601771 -0.555638
0.0720000000 -11.711133 -0.563336
0.0730000000 -11.818945 -0.570853
0.0740000000 -11.925216 -0.578182
0.0750000000 -12.029954 -0.585317
0.0760000000 -12.133168 -0.592253
0.0770000000 -12.234867 -0.598983
0.0780000000 -12.335061 -0.605501
0.0790000000 -12.433756 -0.611803
0.0800000000 -12.530962 -0.617882
0.0810000000 -12.626687 -0.623732
0.0820000000 -12.720939 -0.629349
0.0830000000 -12.813726 -0.634725
0.0840000000 -12.905056 -0.639857
0.0850000000 -12.994937 -0.644739
0.0860000000 -13.083376 -0.649364
0.0870000000 -13.170382 -0.653728
0.0880000000 -13.255961 -0.657825
0.0890000000 -13.340122 -0.661650
0.0900000000 -13.422872 -0.665198
0.0910000000 -13.504217 -0.668463
0.0920000000 -13.584166 -0.671440
0.0930000000 -13.662725 -0.674123
0.0940000000 -13.739901 -0.676509
0.0950000000 -13.815701 -0.678591
0.0960000000 -13.890132 -0.680364
0.0970000000 -13.963201 -0.681824
0.0980000000 -14.034915 -0.682965
0.0990000000 -14.105279 -0.683782
0.1000000000 -14.174301 -0.684271
0.1010000000 -14.241987 -0.684426
0.1020000000 -14.308343 -0.684242
0.1030000000 -14.373376 -0.683715
0.1040000000 -14.437092 -0.682840
0.1050000000 -14.499497 -0.681611
0.1060000000 -14.560596 -0.680025
0.1070000000 -14.620397 -0.678076
0.1080000000 -14.678905 -0.675759
0.1090000000 -14.736125 -0.673070
0.1100000000 -14.792064 -0.670004
0.1110000000 -14.846728 -0.666556
0.1120000000 -14.900121 -0.662722
0.1130000000 -14.952250 -0.658497
0.1140000000 -15.003120 -0.653876
0.1150000000 -15.052737 -0.648856
0.1160000000 -15.101106 -0.643430
0.1170000000 -15.148233 -0.637596
0.1180000000 -15.194122 -0.631348
0.1190000000 -15.238779 -0.624681
0.1200000000 -15.282209 -0.617592
0.1210000000 -15.324417 -0.610075
0.1220000000 -15.365409 -0.602127
0.1230000000 -15.405189 -0.593743
0.1240000000 -15.443763 -0.584919
0.1250000000 -15.481135 -0.575650
0.1260000000 -15.517310 -0.565931
0.1270000000 -15.552293 -0.555760
0.1280000000 -15.586089 -0.545131
0.1290000000 -15.618702 -0.534039
0.1300000000 -15.650138 -0.522482
0.1310000000 -15.680400 -0.510454
0.1320000000 -15.709494 -0.497951
0.1330000000 -15.737423 -0.484970
0.1340000000 -15.764193 -0.471505
0.1350000000 -15.789808 -0.457553
0.1360000000 -15.814272 -0.443110
0.1370000000 -15.837590 -0.428171
0.1380000000 -15.859765 -0.412733
0.1390000000 -15.880803 -0.396791
0.1400000000 -15.900707 -0.380341
0.1410000000 -15.919482 -0.363379
0.1420000000 -15.937132 -0.345902
0.1430000000 -15.953660 -0.327904
0.1440000000 -15.969072 -0.309383
0.1450000000 -15.983370 -0.290333
0.1460000000 -15.996560 -0.270752
0.1470000000 -16.008644 -0.250635
0.1480000000 -16.019628 -0.229978
0.1490000000 -16.029514 -0.208777
0.1500000000 -16.038307 -0.187029
0.1510000000 -16.046010 -0.164729
0.1520000000 -16.052628 -0.141874
0.1530000000 -16.058164 -0.118460
0.1540000000 -16.062622 -0.094482
0.1550000000 -16.066005 -0.069938
0.1560000000 -16.068317 -0.044823
0.1570000000 -16.069561 -0.019133
0.1580000000 -16.069743 0.007135
0.1590000000 -16.068864 0.033985
0.1600000000 -16.066928 0.061421
0.1610000000 -16.063939 0.089447
0.1620000000 -16.059901 0.118066
0.1630000000 -16.054817 0.147282
0.1640000000 -16.048689 0.177099
0.1650000000 -16.041523 0.207521
0.1660000000 -16.033320 0.238550
0.1670000000 -16.024085 0.270192
0.1680000000 -16.013820 0.302448
0.1690000000 -16.002529 0.335324
0.1700000000 -15.990215 0.368823
0.1710000000 -15.976881 0.402948
0.1720000000 -15.962531 0.437703
0.1730000000 -15.947168 0.473092
0.1740000000 -15.930795 0.509118
0.1750000000 -15.913414 0.545784
0.1760000000 -15.895029 0.583095
0.1770000000 -15.875644 0.621053
0.1780000000 -15.855261 0.659663
0.1790000000 -15.833882 0.698928
0.1800000000 -15.811512 0.738851
0.1810000000 -15.788153 0.779435
0.1820000000 -15.763808 0.820685
0.1830000000 -15.738480 0.862604
0.1840000000 -15.712172 0.905195
0.1850000000 -15.684887 0.948462
0.1860000000 -15.656627 0.992408
0.1870000000 -15.627396 1.037036
0.1880000000 -15.597196 1.082351
0.1890000000 -15.566030 1.128354
0.1900000000 -15.533901 1.175051
0.1910000000 -15.500811 1.222443
0.1920000000 -15.466764 1.270535
0.1930000000 -15.431762 1.319330
0.1940000000 -15.395807 1.368831
0.1950000000 -15.358903 1.419042
0.1960000000 -15.321052 1.469965
0.1970000000 -15.282257 1.521605
0.1980000000 -15.242520 1.573964
0.1990000000 -15.201843 1.627046
0.2000000000 -15.160230 1.680855
0.2010000000 -15.117684 1.735392
0.2020000000 -15.074205 1.790662
0.2030000000 -15.029798 1.846668
0.2040000000 -14.984464 1.903414
0.2050000000 -14.938207 1.960901
0.2060000000 -14.891028 2.019134
0.2070000000 -14.842930 2.078117
0.2080000000 -14.793915 2.137851
0.2090000000 -14.743986 2.198340
0.2100000000 -14.693145 2.259588
0.2110000000 -14.641395 2.321597
0.2120000000 -14.588738 2.384372
0.2130000000 -14.535176 2.447914
0.2140000000 -14.480712 2.512228
0.2150000000 -14.425348 2.577315
0.2160000000 -14.369086 2.643181
0.2170000000 -14.311929 2.709826
0.2180000000 -14.253879 2.777256
0.2190000000 -14.194937 2.845472
0.2200000000 -14.135107 2.914478
0.2210000000 -14.074391 2.984278
0.2220000000 -14.012790 3.054873
0.2230000000 -13.950308 3.126267
0.2240000000 -13.886945 3.198464
0.2250000000 -13.822705 3.271466
0.2260000000 -13.757590 3.345277
0.2270000000 -13.691601 3.419898
0.2280000000 -13.624741 3.495335
0.2290000000 -13.557011 3.571589
0.2300000000 -13.488415 3.648663
0.2310000000 -13.418954 3.726561
0.2320000000 -13.348630 3.805285
0.2330000000 -13.277445 3.884839
0.2340000000 -13.205402 3.965226
0.2350000000 -13.132502 4.046448
0.2360000000 -13.058747 4.128508
0.2370000000 -12.984139 4.211410
0.2380000000 -12.908681 4.295157
0.2390000000 -12.832374 4.379751
0.2400000000 -12.755221 4.465195
0.2410000000 -12.677223 4.551492
0.2420000000 -12.598382 4.638646
0.2430000000 -12.518700 4.726659
0.2440000000 -12.438179 4.815534
0.2450000000 -12.356821 4.905273
0.2460000000 -12.274629 4.995881
0.2470000000 -12.191603 5.087360
0.2480000000 -12.107745 5.179712
0.2490000000 -12.023059 5.272941
0.2500000000 -11.937544 5.367049
0.2510000000 -11.851204 5.462039
0.2520000000 -11.764041 5.557915
0.2530000000 -11.676055 5.654679
0.2540000000 -11.587248 5.752333
0.2550000000 -11.497624 5.850881
0.2560000000 -11.407182 5.950326
0.2570000000 -11.315926 6.050670
0.2580000000 -11.223857 6.151917
0.2590000000 -11.130977 6.254068
0.2600000000 -11.037286 6.357127
0.2610000000 -10.942789 6.461097
0.2620000000 -10.847485 6.565980
0.2630000000 -10.751376 6.671780
0.2640000000 -10.654465 6.778498
0.2650000000 -10.556753 6.886138
0.2660000000 -10.458242 6.994703
0.2670000000 -10.358933 7.104195
0.2680000000 -10.258829 7.214617
0.2690000000 -10.157930 7.325972
0.2700000000 -10.056239 7.438263
0.2710000000 -9.953756 7.551492
0.2720000000 -9.850485 7.665662
0.2730000000 -9.746426 7.780775
0.2740000000 -9.641581 7.896836
0.2750000000 -9.535951 8.013845
0.2760000000 -9.429539 8.131807
0.2770000000 -9.322345 8.250723
0.2780000000 -9.214372 8.370596
0.2790000000 -9.105621 8.491429
0.2800000000 -8.996094 8.613225
0.2810000000 -8.885791 8.735987
0.2820000000 -8.774716 8.859717
0.2830000000 -8.662868 8.984417
0.2840000000 -8.550250 9.110091
0.2850000000 -8.436864 9.236740
0.2860000000 -8.322710 9.364369
0.2870000000 -8.207791 9.492979
0.2880000000 -8.092107 9.622573
0.2890000000 -7.975661 9.753153
0.2900000000 -7.858454 9.884723
0.2910000000 -7.740487 10.017285
0.2920000000 -7.621762 10.150841
0.2930000000 -7.502280 10.285395
0.2940000000 -7.382043 10.420948
0.2950000000 -7.261052 10.557504
0.2960000000 -7.139308 10.695064
0.2970000000 -7.016814 10.833632
0.2980000000 -6.893570 10.973211
0.2990000000 -6.769578 11.113801
0.3000000000 -6.644839 11.255408
0.3010000000 -6.519355 11.398032
0.3020000000 -6.393128 11.541677
0.3030000000 -6.266157 11.686344
0.3040000000 -6.138446 11.832038
0.3050000000 -6.009995 11.978759
0.3060000000 -5.880806 12.126511
0.3070000000 -5.750879 12.275296
0.3080000000 -5.620217 12.425117
0.3090000000 -5.488821 12.575977
0.3100000000 -5.356692 12.727877
0.3110000000 -5.223832 12.880820
0.3120000000 -5.090241 13.034810
0.3130000000 -4.955921 13.189847
0.3140000000 -4.820874 13.345936
0.3150000000 -4.685101 13.503078
0.3160000000 -4.548603 13.661276
0.3170000000 -4.411381 13.820532
0.3180000000 -4.273436 13.980849
0.3190000000 -4.134771 14.142230
0.3200000000 -3.995386 14.304676
0.3210000000 -3.855283 14.468191
0.3220000000 -3.714462 14.632777
0.3230000000 -3.572925 14.798436
0.3240000000 -3.430674 14.965170
0.3250000000 -3.287710 15.132983
0.3260000000 -3.144033 15.301876
0.3270000000 -2.999645 15.471853
0.3280000000 -2.854548 15.642915
0.3290000000 -2.708742 15.815065
0.3300000000 -2.562229 15.988305
0.3310000000 -2.415010 16.162638
0.3320000000 -2.267086 16.338067
0.3330000000 -2.118459 16.514593
0.3340000000 -1.969129 16.692219
0.3350000000 -1.819098 16.870948
0.3360000000 -1.668367 17.050782
0.3370000000 -1.516938 17.231723
0.3380000000 -1.364810 17.413774
0.3390000000 -1.211987 17.596937
0.3400000000 -1.058468 17.781214
0.3410000000 -0.904255 17.966608
0.3420000000 -0.749349 18.153122
0.3430000000 -0.593752 18.340758
0.3440000000 -0.437463 18.529517
0.3450000000 -0.280486 18.719403
0.3460000000 -0.122820 18.910418
0.3470000000 0.035533 19.102564
0.3480000000 0.194572 19.295843
0.3490000000 0.354296 19.490258
0.3500000000 0.514704 19.685812
0.3510000000 0.675795 19.882506
0.3520000000 0.837567 20.080343
0.3530000000 1.000019 20.279325
0.3540000000 1.163151 20.479455
0.3550000000 1.326962 20.680735
0.3560000000 1.491449 20.883167
0.3570000000 1.656612 21.086754
0.3580000000 1.822451 21.291497
0.3590000000 1.988963 21.497400
0.3600000000 2.156148 21.704464
0.3610000000 2.324005 21.912693
0.3620000000 2.492532 22.122087
0.3630000000 2.661729 22.332650
0.3640000000 2.831595 22.544383
0.3650000000 3.002128 22.757290
0.3660000000 3.173328 22.971372
0.3670000000 3.345193 23.186631
0.3680000000 3.517723 23.403070
0.3690000000 3.690916 23.620692
0.3700000000 3.864771 23.839498
0.3710000000 4.039287 24.059491
0.3720000000 4.214464 24.280673
0.3730000000 4.390300 24.503046
0.3740000000 4.566794 24.726612
0.3750000000 4.743946 24.951374
0.3760000000 4.921754 25.177335
0.3770000000 5.100216 25.404495
0.3780000000 5.279334 25.632859
0.3790000000 5.459104 25.862426
0.3800000000 5.639527 26.093201
0.3810000000 5.820600 26.325185
0.3820000000 6.002325 26.558381
0.3830000000 6.184698 26.792790
0.3840000000 6.367720 27.028416
0.3850000000 6.551389 27.265259
0.3860000000 6.735704 27.503323
0.3870000000 6.920665 27.742609
0.3880000000 7.106270 27.983120
0.3890000000 7.292519 28.224858
0.3900000000 7.479411 28.467826
0.3910000000 7.666944 28.712024
0.3920000000 7.855117 28.957457
0.3930000000 8.043931 29.204125
0.3940000000 8.233383 29.452031
0.3950000000 8.423473 29.701177
0.3960000000 8.614200 29.951566
0.3970000000 8.805562 30.203199
0.3980000000 8.997560 30.456079
0.3990000000 9.190193 30.710208
0.4000000000 9.383458 30.965588
0.4010000000 9.577356 31.222221
0.4020000000 9.771885 31.480109
0.4030000000 9.967044 31.739255
0.4040000000 10.162833 31.999661
0.4050000000 10.359251 32.261329
0.4060000000 10.556297 32.524261
0.4070000000 10.753970 32.788459
0.4080000000 10.952269 33.053925
0.4090000000 11.151192 33.320662
0.4100000000 11.350741 33.588671
0.4110000000 11.550912 33.857955
0.4120000000 11.751706 34.128516
0.4130000000 11.953122 34.400356
0.4140000000 12.155158 34.673477
0.4150000000 12.357815 34.947881
0.4160000000 12.561090 35.223571
0.4170000000 12.764984 35.500548
0.4180000000 12.969495 35.778815
0.4190000000 13.174622 36.058374
0.4200000000 13.380366 36.339226
0.4210000000 13.586723 36.621375
0.4220000000 13.793695 36.904821
0.4230000000 14.001280 37.189568
0.4240000000 14.209478 37.475617
0.4250000000 14.418286 37.762970
0.4260000000 14.627706 38.051629
0.4270000000 14.837735 38.341598
0.4280000000 15.048373 38.632876
0.4290000000 15.259619 38.925468
0.4300000000 15.471473 39.219374
0.4310000000 15.683933 39.514597
0.4320000000 15.896998 39.811139
0.4330000000 16.110669 40.109002
0.4340000000 16.324944 40.408188
0.4350000000 16.539821 40.708699
0.4360000000 16.755302 41.010538
0.4370000000 16.971384 41.313705
0.4380000000 17.188067 41.618204
0.4390000000 17.405350 41.924037
0.4400000000 17.623232 42.231204
0.4410000000 17.841713 42.539710
0.4420000000 18.060791 42.849554
0.4430000000 18.280467 43.160741
0.4440000000 18.500738 43.473271
0.4450000000 18.721605 43.787146
0.4460000000 18.943067 44.102369
0.4470000000 19.165122 44.418942
0.4480000000 19.387771 44.736867
0.4490000000 19.611012 45.056145
0.4500000000 19.834844 45.376779
0.4510000000 20.059267 45.698771
0.4520000000 20.284280 46.022123
0.4530000000 20.509882 46.346837
0.4540000000 20.736073 46.672914
0.4550000000 20.962852 47.000358
0.4560000000 21.190217 47.329169
0.4570000000 21.418169 47.659350
0.4580000000 21.646707 47.990903
0.4590000000 21.875829 48.323830
0.4600000000 22.105535 48.658133
0.4610000000 22.335825 48.993813
0.4620000000 22.566697 49.330874
0.4630000000 22.798151 49.669316
0.4640000000 23.030186 50.009143
0.4650000000 23.262801 50.350355
0.4660000000 23.495996 50.692955
0.4670000000 23.729770 51.036945
0.4680000000 23.964122 51.382326
0.4690000000 24.199052 51.729101
0.4700000000 24.434559 52.077272
0.4710000000 24.670642 52.426841
0.4720000000 24.907300 52.777809
0.4730000000 25.144532 53.130179
0.4740000000 25.382339 53.483953
0.4750000000 25.620719 53.839132
0.4760000000 25.859671 54.195719
0.4770000000 26.099196 54.553715
0.4780000000 26.339291 54.913123
0.4790000000 26.579957 55.273944
0.4800000000 26.821193 55.636180
0.4810000000 27.062998 55.999833
0.4820000000 27.305371 56.364906
0.4830000000 27.548312 56.731400
0.4840000000 27.791820 57.099317
0.4850000000 28.035895 57.468659
0.4860000000 28.280535 57.839428
0.4870000000 28.525740 58.211626
0.4880000000 28.771510 58.585255
0.4890000000 29.017843 58.960316
0.4900000000 29.264739 59.336812
0.4910000000 29.512197 59.714745
0.4920000000 29.760218 60.094116
0.4930000000 30.008799 60.474928
0.4940000000 30.257940 60.857182
0.4950000000 30.507641 61.240880
0.4960000000 30.757902 61.626025
0.4970000000 31.008720 62.012617
0.4980000000 31.260097 62.400660
0.4990000000 31.512030 62.790155
0.5000000000 31.764520 63.181103
0.5010000000 32.017565 63.573507
0.5020000000 32.271166 63.967368
0.5030000000 32.525321 64.362689
0.5040000000 32.780030 64.759472
0.5050000000 33.035293 65.157717
0.5060000000 33.291107 65.557428
0.5070000000 33.547474 65.958606
0.5080000000 33.804392 66.361253
0.5090000000 34.061861 66.765371
0.5100000000 34.319880 67.170961
0.5110000000 34.578448 67.578026
0.5120000000 34.837565 67.986567
0.5130000000 35.097230 68.396587
0.5140000000 35.357443 68.808087
0.5150000000 35.618203 69.221069
0.5160000000 35.879509 69.635535
0.5170000000 36.141361 70.051486
0.5180000000 36.403757 70.468926
0.5190000000 36.666699 70.887854
0.5200000000 36.930184 71.308275
0.5210000000 37.194212 71.730188
0.5220000000 37.458783 72.153596
0.5230000000 37.723896 72.578502
0.5240000000 37.989551 73.004906
0.5250000000 38.255746 73.432811
0.5260000000 38.522482 73.862218
0.5270000000 38.789757 74.293130
0.5280000000 39.057571 74.725547
0.5290000000 39.325924 75.159473
0.5300000000 39.594815 75.594909
0.5310000000 39.864243 76.031856
0.5320000000 40.134207 76.470317
0.5330000000 40.404708 76.910293
0.5340000000 40.675744 77.351786
0.5350000000 40.947315 77.794798
0.5360000000 41.219421 78.239331
0.5370000000 41.492060 78.685387
0.5380000000 41.765232 79.132967
0.5390000000 42.038937 79.582074
0.5400000000 42.313174 80.032708
0.5410000000 42.587943 80.484873
0.5420000000 42.863242 80.938569
0.5430000000 43.139072 81.393799
0.5440000000 43.415432 81.850564
0.5450000000 43.692320 82.308866
0.5460000000 43.969737 82.768707
0.5470000000 44.247683 83.230089
0.5480000000 44.526156 83.693013
0.5490000000 44.805155 84.157482
0.5500000000 45.084682 84.623497
0.5510000000 45.364733 85.091060
0.5520000000 45.645311 85.560173
0.5530000000 45.926413 86.030837
0.5540000000 46.208039 86.503055
0.5550000000 46.490188 86.976827
0.5560000000 46.772861 87.452157
0.5570000000 47.056056 87.929045
0.5580000000 47.339773 88.407494
0.5590000000 47.624012 88.887505
0.5600000000 47.908772 89.369080
0.5610000000 48.194051 89.852221
0.5620000000 48.479851 90.336929
0.5630000000 48.766170 90.823207
0.5640000000 49.053007 91.311056
0.5650000000 49.340363 91.800477
0.5660000000 49.628236 92.291474
0.5670000000 49.916627 92.784047
0.5680000000 50.205534 93.278198
0.5690000000 50.494957 93.773929
0.5700000000 50.784895 94.271241
0.5710000000 51.075349 94.770137
0.5720000000 51.366317 95.270619
0.5730000000 51.657799 95.772687
0.5740000000 51.949795 96.276344
0.5750000000 52.242303 96.781592
0.5760000000 52.535323 97.288431
0.5770000000 52.828856 97.796865
0.5780000000 53.122900 98.306894
0.5790000000 53.417455 98.818521
0.5800000000 53.712520 99.331747
0.5810000000 54.008094 99.846574
0.5820000000 54.304178 100.363004
0.5830000000 54.600771 100.881038
0.5840000000 54.897872 101.400679
0.5850000000 55.195481 101.921927
0.5860000000 55.493597 102.444785
0.5870000000 55.792220 102.969254
0.5880000000 56.091349 103.495336
0.5890000000 56.390984 104.023033
0.5900000000 56.691124 104.552347
0.5910000000 56.991769 105.083278
0.5920000000 57.292918 105.615830
0.5930000000 57.594571 106.150004
0.5940000000 57.896727 106.685801
0.5950000000 58.199386 107.223223
0.5960000000 58.502547 107.762271
0.5970000000 58.806210 108.302949
0.5980000000 59.110374 108.845256
0.5990000000 59.415039 109.389196
0.6000000000 59.720204 109.934769
0.6010000000 60.025869 110.481978
0.6020000000 60.332033 111.030824
