# Homogenous matter with Skyrme BSk25
# den [fm-3], E/A [MeV], Press [MeV.fm-3] 
0.0010000000 1.144257 0.000723
0.0020000000 1.761445 0.002154
0.0030000000 2.249891 0.004016
0.0040000000 2.664467 0.006185
0.0050000000 3.028437 0.008585
0.0060000000 3.354523 0.011162
0.0070000000 3.650676 0.013874
0.0080000000 3.922304 0.016689
0.0090000000 4.173308 0.019580
0.0100000000 4.406624 0.022528
0.0110000000 4.624533 0.025512
0.0120000000 4.828861 0.028520
0.0130000000 5.021093 0.031538
0.0140000000 5.202465 0.034555
0.0150000000 5.374017 0.037563
0.0160000000 5.536635 0.040555
0.0170000000 5.691087 0.043523
0.0180000000 5.838038 0.046462
0.0190000000 5.978074 0.049369
0.0200000000 6.111712 0.052239
0.0210000000 6.239415 0.055071
0.0220000000 6.361596 0.057861
0.0230000000 6.478628 0.060608
0.0240000000 6.590846 0.063312
0.0250000000 6.698559 0.065972
0.0260000000 6.802045 0.068587
0.0270000000 6.901562 0.071159
0.0280000000 6.997345 0.073688
0.0290000000 7.089611 0.076175
0.0300000000 7.178564 0.078622
0.0310000000 7.264388 0.081031
0.0320000000 7.347258 0.083403
0.0330000000 7.427337 0.085741
0.0340000000 7.504774 0.088048
0.0350000000 7.579714 0.090325
0.0360000000 7.652287 0.092578
0.0370000000 7.722621 0.094808
0.0380000000 7.790832 0.097019
0.0390000000 7.857032 0.099215
0.0400000000 7.921326 0.101399
0.0410000000 7.983813 0.103576
0.0420000000 8.044588 0.105750
0.0430000000 8.103740 0.107924
0.0440000000 8.161354 0.110104
0.0450000000 8.217510 0.112294
0.0460000000 8.272287 0.114499
0.0470000000 8.325757 0.116723
0.0480000000 8.377990 0.118972
0.0490000000 8.429053 0.121250
0.0500000000 8.479010 0.123563
0.0510000000 8.527923 0.125916
0.0520000000 8.575850 0.128314
0.0530000000 8.622848 0.130763
0.0540000000 8.668971 0.133268
0.0550000000 8.714269 0.135835
0.0560000000 8.758795 0.138469
0.0570000000 8.802595 0.141177
0.0580000000 8.845715 0.143965
0.0590000000 8.888201 0.146838
0.0600000000 8.930094 0.149802
0.0610000000 8.971437 0.152863
0.0620000000 9.012270 0.156029
0.0630000000 9.052630 0.159304
0.0640000000 9.092556 0.162695
0.0650000000 9.132083 0.166209
0.0660000000 9.171246 0.169852
0.0670000000 9.210079 0.173630
0.0680000000 9.248615 0.177550
0.0690000000 9.286885 0.181619
0.0700000000 9.324920 0.185843
0.0710000000 9.362749 0.190229
0.0720000000 9.400402 0.194784
0.0730000000 9.437906 0.199515
0.0740000000 9.475290 0.204427
0.0750000000 9.512578 0.209529
0.0760000000 9.549797 0.214827
0.0770000000 9.586972 0.220328
0.0780000000 9.624127 0.226039
0.0790000000 9.661286 0.231968
0.0800000000 9.698472 0.238121
0.0810000000 9.735706 0.244505
0.0820000000 9.773012 0.251128
0.0830000000 9.810409 0.257996
0.0840000000 9.847919 0.265118
0.0850000000 9.885563 0.272500
0.0860000000 9.923358 0.280150
0.0870000000 9.961326 0.288075
0.0880000000 9.999484 0.296282
0.0890000000 10.037851 0.304779
0.0900000000 10.076445 0.313573
0.0910000000 10.115282 0.322672
0.0920000000 10.154381 0.332083
0.0930000000 10.193757 0.341814
0.0940000000 10.233428 0.351873
0.0950000000 10.273408 0.362266
0.0960000000 10.313713 0.373001
0.0970000000 10.354359 0.384087
0.0980000000 10.395361 0.395531
0.0990000000 10.436732 0.407340
0.1000000000 10.478488 0.419523
0.1010000000 10.520641 0.432086
0.1020000000 10.563207 0.445038
0.1030000000 10.606197 0.458387
0.1040000000 10.649626 0.472140
0.1050000000 10.693505 0.486305
0.1060000000 10.737849 0.500891
0.1070000000 10.782668 0.515904
0.1080000000 10.827975 0.531352
0.1090000000 10.873781 0.547245
0.1100000000 10.920099 0.563589
0.1110000000 10.966940 0.580393
0.1120000000 11.014315 0.597664
0.1130000000 11.062235 0.615411
0.1140000000 11.110710 0.633641
0.1150000000 11.159752 0.652363
0.1160000000 11.209370 0.671585
0.1170000000 11.259574 0.691314
0.1180000000 11.310376 0.711559
0.1190000000 11.361784 0.732328
0.1200000000 11.413808 0.753629
0.1210000000 11.466457 0.775470
0.1220000000 11.519742 0.797859
0.1230000000 11.573671 0.820804
0.1240000000 11.628252 0.844314
0.1250000000 11.683496 0.868397
0.1260000000 11.739410 0.893061
0.1270000000 11.796003 0.918314
0.1280000000 11.853284 0.944165
0.1290000000 11.911261 0.970621
0.1300000000 11.969941 0.997691
0.1310000000 12.029333 1.025384
0.1320000000 12.089445 1.053707
0.1330000000 12.150285 1.082668
0.1340000000 12.211859 1.112277
0.1350000000 12.274176 1.142542
0.1360000000 12.337243 1.173470
0.1370000000 12.401068 1.205070
0.1380000000 12.465657 1.237351
0.1390000000 12.531017 1.270321
0.1400000000 12.597155 1.303988
0.1410000000 12.664079 1.338361
0.1420000000 12.731795 1.373447
0.1430000000 12.800309 1.409257
0.1440000000 12.869628 1.445797
0.1450000000 12.939759 1.483077
0.1460000000 13.010708 1.521104
0.1470000000 13.082481 1.559888
0.1480000000 13.155084 1.599437
0.1490000000 13.228523 1.639759
0.1500000000 13.302805 1.680863
0.1510000000 13.377935 1.722757
0.1520000000 13.453919 1.765450
0.1530000000 13.530763 1.808950
0.1540000000 13.608473 1.853266
0.1550000000 13.687054 1.898407
0.1560000000 13.766511 1.944381
0.1570000000 13.846850 1.991196
0.1580000000 13.928077 2.038861
0.1590000000 14.010196 2.087385
0.1600000000 14.093213 2.136776
0.1610000000 14.177133 2.187043
0.1620000000 14.261961 2.238195
0.1630000000 14.347703 2.290240
0.1640000000 14.434362 2.343186
0.1650000000 14.521945 2.397043
0.1660000000 14.610455 2.451819
0.1670000000 14.699898 2.507522
0.1680000000 14.790278 2.564162
0.1690000000 14.881601 2.621747
0.1700000000 14.973869 2.680285
0.1710000000 15.067089 2.739786
0.1720000000 15.161264 2.800257
0.1730000000 15.256399 2.861709
0.1740000000 15.352499 2.924149
0.1750000000 15.449567 2.987586
0.1760000000 15.547608 3.052028
0.1770000000 15.646626 3.117486
0.1780000000 15.746625 3.183966
0.1790000000 15.847610 3.251479
0.1800000000 15.949584 3.320032
0.1810000000 16.052551 3.389635
0.1820000000 16.156516 3.460296
0.1830000000 16.261483 3.532024
0.1840000000 16.367454 3.604828
0.1850000000 16.474434 3.678716
0.1860000000 16.582428 3.753698
0.1870000000 16.691438 3.829782
0.1880000000 16.801468 3.906977
0.1890000000 16.912522 3.985291
0.1900000000 17.024603 4.064734
0.1910000000 17.137716 4.145314
0.1920000000 17.251863 4.227041
0.1930000000 17.367049 4.309922
0.1940000000 17.483276 4.393967
0.1950000000 17.600548 4.479185
0.1960000000 17.718868 4.565584
0.1970000000 17.838241 4.653174
0.1980000000 17.958668 4.741963
0.1990000000 18.080154 4.831959
0.2000000000 18.202702 4.923173
0.2010000000 18.326314 5.015612
0.2020000000 18.450994 5.109286
0.2030000000 18.576745 5.204203
0.2040000000 18.703571 5.300373
0.2050000000 18.831474 5.397804
0.2060000000 18.960458 5.496505
0.2070000000 19.090524 5.596485
0.2080000000 19.221677 5.697752
0.2090000000 19.353920 5.800317
0.2100000000 19.487255 5.904188
0.2110000000 19.621684 6.009373
0.2120000000 19.757212 6.115881
0.2130000000 19.893841 6.223722
0.2140000000 20.031573 6.332905
0.2150000000 20.170412 6.443437
0.2160000000 20.310360 6.555329
0.2170000000 20.451420 6.668589
0.2180000000 20.593594 6.783227
0.2190000000 20.736886 6.899250
0.2200000000 20.881298 7.016668
0.2210000000 21.026832 7.135491
0.2220000000 21.173491 7.255726
0.2230000000 21.321278 7.377383
0.2240000000 21.470196 7.500471
0.2250000000 21.620246 7.624999
0.2260000000 21.771431 7.750976
0.2270000000 21.923754 7.878411
0.2280000000 22.077217 8.007312
0.2290000000 22.231823 8.137689
0.2300000000 22.387574 8.269551
0.2310000000 22.544472 8.402907
0.2320000000 22.702521 8.537765
0.2330000000 22.861721 8.674135
0.2340000000 23.022075 8.812026
0.2350000000 23.183587 8.951447
0.2360000000 23.346257 9.092406
0.2370000000 23.510089 9.234913
0.2380000000 23.675084 9.378977
0.2390000000 23.841245 9.524607
0.2400000000 24.008573 9.671812
0.2410000000 24.177072 9.820601
0.2420000000 24.346743 9.970982
0.2430000000 24.517589 10.122966
0.2440000000 24.689611 10.276560
0.2450000000 24.862811 10.431775
0.2460000000 25.037192 10.588618
0.2470000000 25.212756 10.747100
0.2480000000 25.389505 10.907229
0.2490000000 25.567440 11.069014
0.2500000000 25.746565 11.232464
0.2510000000 25.926880 11.397589
0.2520000000 26.108388 11.564397
0.2530000000 26.291091 11.732897
0.2540000000 26.474990 11.903100
0.2550000000 26.660088 12.075012
0.2560000000 26.846387 12.248645
0.2570000000 27.033888 12.424006
0.2580000000 27.222593 12.601105
0.2590000000 27.412504 12.779951
0.2600000000 27.603624 12.960553
0.2610000000 27.795953 13.142920
0.2620000000 27.989494 13.327061
0.2630000000 28.184249 13.512986
0.2640000000 28.380219 13.700703
0.2650000000 28.577406 13.890221
0.2660000000 28.775811 14.081550
0.2670000000 28.975437 14.274699
0.2680000000 29.176286 14.469677
0.2690000000 29.378358 14.666492
0.2700000000 29.581657 14.865155
0.2710000000 29.786182 15.065673
0.2720000000 29.991937 15.268057
0.2730000000 30.198922 15.472315
0.2740000000 30.407140 15.678457
0.2750000000 30.616592 15.886491
0.2760000000 30.827279 16.096427
0.2770000000 31.039204 16.308274
0.2780000000 31.252367 16.522041
0.2790000000 31.466771 16.737737
0.2800000000 31.682417 16.955371
0.2810000000 31.899307 17.174953
0.2820000000 32.117441 17.396491
0.2830000000 32.336823 17.619995
0.2840000000 32.557452 17.845474
0.2850000000 32.779331 18.072937
0.2860000000 33.002462 18.302393
0.2870000000 33.226845 18.533851
0.2880000000 33.452482 18.767320
0.2890000000 33.679375 19.002811
0.2900000000 33.907526 19.240331
0.2910000000 34.136934 19.479889
0.2920000000 34.367603 19.721496
0.2930000000 34.599533 19.965160
0.2940000000 34.832726 20.210891
0.2950000000 35.067184 20.458697
0.2960000000 35.302907 20.708588
0.2970000000 35.539897 20.960572
0.2980000000 35.778155 21.214660
0.2990000000 36.017683 21.470860
0.3000000000 36.258482 21.729182
0.3010000000 36.500554 21.989634
0.3020000000 36.743900 22.252226
0.3030000000 36.988521 22.516966
0.3040000000 37.234418 22.783865
0.3050000000 37.481593 23.052932
0.3060000000 37.730047 23.324174
0.3070000000 37.979782 23.597603
0.3080000000 38.230798 23.873226
0.3090000000 38.483097 24.151054
0.3100000000 38.736680 24.431095
0.3110000000 38.991549 24.713358
0.3120000000 39.247704 24.997853
0.3130000000 39.505147 25.284589
0.3140000000 39.763880 25.573575
0.3150000000 40.023903 25.864820
0.3160000000 40.285217 26.158334
0.3170000000 40.547824 26.454125
0.3180000000 40.811725 26.752204
0.3190000000 41.076922 27.052578
0.3200000000 41.343414 27.355258
0.3210000000 41.611204 27.660253
0.3220000000 41.880293 27.967571
0.3230000000 42.150682 28.277222
0.3240000000 42.422371 28.589215
0.3250000000 42.695363 28.903560
0.3260000000 42.969658 29.220265
0.3270000000 43.245257 29.539340
0.3280000000 43.522162 29.860795
0.3290000000 43.800374 30.184637
0.3300000000 44.079893 30.510878
0.3310000000 44.360721 30.839525
0.3320000000 44.642859 31.170587
0.3330000000 44.926307 31.504076
0.3340000000 45.211068 31.839998
0.3350000000 45.497142 32.178364
0.3360000000 45.784530 32.519184
0.3370000000 46.073233 32.862465
0.3380000000 46.363253 33.208218
0.3390000000 46.654590 33.556451
0.3400000000 46.947245 33.907174
0.3410000000 47.241219 34.260397
0.3420000000 47.536514 34.616128
0.3430000000 47.833131 34.974376
0.3440000000 48.131069 35.335151
0.3450000000 48.430331 35.698462
0.3460000000 48.730918 36.064319
0.3470000000 49.032829 36.432730
0.3480000000 49.336068 36.803705
0.3490000000 49.640633 37.177254
0.3500000000 49.946527 37.553384
0.3510000000 50.253750 37.932106
0.3520000000 50.562303 38.313429
0.3530000000 50.872188 38.697363
0.3540000000 51.183404 39.083915
0.3550000000 51.495954 39.473096
0.3560000000 51.809837 39.864915
0.3570000000 52.125056 40.259382
0.3580000000 52.441610 40.656504
0.3590000000 52.759501 41.056293
0.3600000000 53.078730 41.458756
0.3610000000 53.399297 41.863903
0.3620000000 53.721204 42.271745
0.3630000000 54.044451 42.682288
0.3640000000 54.369039 43.095544
0.3650000000 54.694969 43.511521
0.3660000000 55.022243 43.930229
0.3670000000 55.350860 44.351676
0.3680000000 55.680822 44.775873
0.3690000000 56.012130 45.202828
0.3700000000 56.344784 45.632551
0.3710000000 56.678785 46.065050
0.3720000000 57.014135 46.500336
0.3730000000 57.350833 46.938417
0.3740000000 57.688882 47.379304
0.3750000000 58.028281 47.823004
0.3760000000 58.369031 48.269527
0.3770000000 58.711134 48.718883
0.3780000000 59.054590 49.171081
0.3790000000 59.399400 49.626131
0.3800000000 59.745565 50.084040
0.3810000000 60.093085 50.544820
0.3820000000 60.441962 51.008479
0.3830000000 60.792196 51.475026
0.3840000000 61.143788 51.944470
0.3850000000 61.496738 52.416822
0.3860000000 61.851048 52.892089
0.3870000000 62.206718 53.370282
0.3880000000 62.563750 53.851410
0.3890000000 62.922143 54.335483
0.3900000000 63.281898 54.822508
0.3910000000 63.643018 55.312496
0.3920000000 64.005501 55.805457
0.3930000000 64.369349 56.301398
0.3940000000 64.734562 56.800330
0.3950000000 65.101142 57.302262
0.3960000000 65.469089 57.807203
0.3970000000 65.838404 58.315163
0.3980000000 66.209087 58.826150
0.3990000000 66.581140 59.340175
0.4000000000 66.954562 59.857246
0.4010000000 67.329356 60.377372
0.4020000000 67.705520 60.900564
0.4030000000 68.083057 61.426830
0.4040000000 68.461967 61.956179
0.4050000000 68.842250 62.488622
0.4060000000 69.223907 63.024167
0.4070000000 69.606939 63.562823
0.4080000000 69.991347 64.104600
0.4090000000 70.377131 64.649507
0.4100000000 70.764293 65.197554
0.4110000000 71.152831 65.748749
0.4120000000 71.542748 66.303103
0.4130000000 71.934044 66.860624
0.4140000000 72.326720 67.421322
0.4150000000 72.720776 67.985206
0.4160000000 73.116213 68.552285
0.4170000000 73.513032 69.122569
0.4180000000 73.911233 69.696067
0.4190000000 74.310817 70.272788
0.4200000000 74.711784 70.852742
0.4210000000 75.114136 71.435938
0.4220000000 75.517873 72.022385
0.4230000000 75.922995 72.612093
0.4240000000 76.329503 73.205070
0.4250000000 76.737398 73.801327
0.4260000000 77.146681 74.400872
0.4270000000 77.557351 75.003716
0.4280000000 77.969410 75.609866
0.4290000000 78.382859 76.219333
0.4300000000 78.797697 76.832126
0.4310000000 79.213926 77.448254
0.4320000000 79.631546 78.067727
0.4330000000 80.050557 78.690554
0.4340000000 80.470961 79.316743
0.4350000000 80.892758 79.946305
0.4360000000 81.315948 80.579249
0.4370000000 81.740532 81.215585
0.4380000000 82.166511 81.855320
0.4390000000 82.593885 82.498466
0.4400000000 83.022655 83.145030
0.4410000000 83.452822 83.795024
0.4420000000 83.884385 84.448455
0.4430000000 84.317346 85.105333
0.4440000000 84.751705 85.765667
0.4450000000 85.187463 86.429468
0.4460000000 85.624620 87.096743
0.4470000000 86.063177 87.767503
0.4480000000 86.503134 88.441757
0.4490000000 86.944493 89.119515
0.4500000000 87.387252 89.800784
0.4510000000 87.831414 90.485576
0.4520000000 88.276978 91.173898
0.4530000000 88.723946 91.865762
0.4540000000 89.172317 92.561175
0.4550000000 89.622093 93.260147
0.4560000000 90.073273 93.962688
0.4570000000 90.525858 94.668806
0.4580000000 90.979850 95.378512
0.4590000000 91.435247 96.091815
0.4600000000 91.892052 96.808723
0.4610000000 92.350264 97.529247
0.4620000000 92.809883 98.253395
0.4630000000 93.270912 98.981178
0.4640000000 93.733349 99.712603
0.4650000000 94.197196 100.447681
0.4660000000 94.662453 101.186421
0.4670000000 95.129120 101.928833
0.4680000000 95.597198 102.674925
0.4690000000 96.066688 103.424707
0.4700000000 96.537589 104.178189
0.4710000000 97.009904 104.935379
0.4720000000 97.483631 105.696288
0.4730000000 97.958772 106.460923
0.4740000000 98.435326 107.229296
0.4750000000 98.913296 108.001415
0.4760000000 99.392680 108.777289
0.4770000000 99.873480 109.556928
0.4780000000 100.355695 110.340341
0.4790000000 100.839327 111.127538
0.4800000000 101.324376 111.918527
0.4810000000 101.810842 112.713319
0.4820000000 102.298726 113.511923
0.4830000000 102.788029 114.314347
0.4840000000 103.278750 115.120602
0.4850000000 103.770890 115.930696
0.4860000000 104.264451 116.744639
0.4870000000 104.759431 117.562441
0.4880000000 105.255832 118.384110
0.4890000000 105.753654 119.209657
0.4900000000 106.252898 120.039090
0.4910000000 106.753563 120.872419
0.4920000000 107.255651 121.709652
0.4930000000 107.759162 122.550801
0.4940000000 108.264097 123.395873
0.4950000000 108.770455 124.244878
0.4960000000 109.278237 125.097826
0.4970000000 109.787444 125.954726
0.4980000000 110.298077 126.815587
0.4990000000 110.810134 127.680419
0.5000000000 111.323618 128.549231
0.5010000000 111.838528 129.422032
0.5020000000 112.354866 130.298832
0.5030000000 112.872630 131.179641
0.5040000000 113.391822 132.064466
0.5050000000 113.912442 132.953319
0.5060000000 114.434491 133.846207
0.5070000000 114.957969 134.743141
0.5080000000 115.482876 135.644130
0.5090000000 116.009213 136.549184
0.5100000000 116.536980 137.458311
0.5110000000 117.066178 138.371521
0.5120000000 117.596807 139.288823
0.5130000000 118.128868 140.210227
0.5140000000 118.662360 141.135742
0.5150000000 119.197285 142.065378
0.5160000000 119.733642 142.999144
0.5170000000 120.271433 143.937048
0.5180000000 120.810657 144.879102
0.5190000000 121.351315 145.825313
0.5200000000 121.893407 146.775691
0.5210000000 122.436934 147.730247
0.5220000000 122.981896 148.688988
0.5230000000 123.528293 149.651925
0.5240000000 124.076127 150.619066
0.5250000000 124.625396 151.590422
0.5260000000 125.176103 152.566001
0.5270000000 125.728246 153.545813
0.5280000000 126.281827 154.529867
0.5290000000 126.836846 155.518173
0.5300000000 127.393302 156.510739
0.5310000000 127.951198 157.507577
0.5320000000 128.510532 158.508694
0.5330000000 129.071306 159.514100
0.5340000000 129.633519 160.523804
0.5350000000 130.197172 161.537816
0.5360000000 130.762266 162.556146
0.5370000000 131.328801 163.578802
0.5380000000 131.896777 164.605794
0.5390000000 132.466194 165.637132
0.5400000000 133.037053 166.672824
0.5410000000 133.609355 167.712880
0.5420000000 134.183099 168.757310
0.5430000000 134.758286 169.806122
0.5440000000 135.334916 170.859327
0.5450000000 135.912991 171.916934
0.5460000000 136.492509 172.978951
0.5470000000 137.073472 174.045389
0.5480000000 137.655879 175.116256
0.5490000000 138.239732 176.191562
0.5500000000 138.825030 177.271317
0.5510000000 139.411774 178.355530
0.5520000000 139.999964 179.444210
0.5530000000 140.589600 180.537366
0.5540000000 141.180683 181.635009
0.5550000000 141.773214 182.737147
0.5560000000 142.367192 183.843789
0.5570000000 142.962618 184.954946
0.5580000000 143.559492 186.070626
0.5590000000 144.157815 187.190839
0.5600000000 144.757587 188.315594
0.5610000000 145.358807 189.444901
0.5620000000 145.961478 190.578768
0.5630000000 146.565598 191.717206
0.5640000000 147.171168 192.860224
0.5650000000 147.778189 194.007831
0.5660000000 148.386661 195.160037
0.5670000000 148.996584 196.316850
0.5680000000 149.607959 197.478281
0.5690000000 150.220785 198.644338
0.5700000000 150.835064 199.815031
0.5710000000 151.450795 200.990370
0.5720000000 152.067978 202.170363
0.5730000000 152.686615 203.355021
0.5740000000 153.306706 204.544352
0.5750000000 153.928250 205.738366
0.5760000000 154.551248 206.937072
0.5770000000 155.175700 208.140480
0.5780000000 155.801608 209.348599
0.5790000000 156.428970 210.561439
0.5800000000 157.057787 211.779008
0.5810000000 157.688060 213.001317
0.5820000000 158.319789 214.228374
0.5830000000 158.952974 215.460189
0.5840000000 159.587616 216.696772
0.5850000000 160.223715 217.938131
0.5860000000 160.861270 219.184276
0.5870000000 161.500283 220.435217
0.5880000000 162.140754 221.690963
0.5890000000 162.782683 222.951523
0.5900000000 163.426070 224.216906
0.5910000000 164.070916 225.487123
0.5920000000 164.717220 226.762182
0.5930000000 165.364984 228.042093
0.5940000000 166.014207 229.326865
0.5950000000 166.664891 230.616508
0.5960000000 167.317034 231.911031
0.5970000000 167.970637 233.210443
0.5980000000 168.625701 234.514753
0.5990000000 169.282226 235.823972
0.6000000000 169.940213 237.138109
0.6010000000 170.599660 238.457172
0.6020000000 171.260570 239.781171
0.6030000000 171.922942 241.110117
0.6040000000 172.586775 242.444017
0.6050000000 173.252072 243.782882
