,Wavelength,stock_a,stock_b
0,400.0,0.628666542962082,1.19419159009104
1,402.0,0.642845916748958,1.2207860241514
2,404.0,0.656424234758856,1.24625728113744
3,406.0,0.668685317001798,1.26943965883847
4,408.0,0.680069069178553,1.29138253742848
5,410.0,0.690242718582938,1.31149313132818
6,412.0,0.699740367632737,1.33033510469259
7,414.0,0.707578719714169,1.34642558345473
8,416.0,0.714779772245887,1.36128020506587
9,418.0,0.720888750394535,1.37441830344715
10,420.0,0.726016474943276,1.38565999188559
11,422.0,0.729980073959043,1.39436398429827
12,424.0,0.732874541011685,1.40111696498038
13,426.0,0.734540024849305,1.4056361197886
14,428.0,0.735097908625889,1.40803667661902
15,430.0,0.73457405342944,1.40842114601384
16,432.0,0.733273954116151,1.40729682271283
17,434.0,0.731405751993494,1.40470461474575
18,436.0,0.729010999134507,1.40098178131525
19,438.0,0.726439007275916,1.39581636528143
20,440.0,0.723790941066841,1.39030894509664
21,442.0,0.720436737170563,1.38085177205031
22,444.0,0.71659010784776,1.36895927367588
23,446.0,0.712025938239398,1.35362932345173
24,448.0,0.706235170969681,1.3333328144397
25,450.0,0.699418500528995,1.30881944703745
26,452.0,0.691889909516751,1.28178312317475
27,454.0,0.683765078926229,1.25179049470471
28,456.0,0.673787503180879,1.21445098895148
29,458.0,0.663854190902748,1.17666226009792
30,460.0,0.654523984066762,1.13953298299122
31,462.0,0.645860308021592,1.10325440306347
32,464.0,0.637605479954347,1.06646237948973
33,466.0,0.629943965923704,1.03045502232037
34,468.0,0.622918683554874,0.996362516352086
35,470.0,0.617444585888272,0.964066903459121
36,472.0,0.610993504647209,0.929461516870184
37,474.0,0.603355102245801,0.892484256364462
38,476.0,0.59637150432204,0.854447761301326
39,478.0,0.588186673453793,0.810755791501103
40,480.0,0.579233025742872,0.763399405823291
41,482.0,0.569655113426125,0.7130187960826
42,484.0,0.560685775339514,0.665555238278937
43,486.0,0.55206233327449,0.619118824409626
44,488.0,0.543409667780308,0.572384076155375
45,490.0,0.535216130724544,0.526897444787837
46,492.0,0.527848279417632,0.486161985087536
47,494.0,0.522125167198708,0.453425342665081
48,496.0,0.517186888177015,0.425014725159669
49,498.0,0.512820943610319,0.399949952001419
50,500.0,0.508260341868612,0.377381067740646
51,502.0,0.504116620034825,0.3590110281187
52,504.0,0.49994273077647,0.343236445264377
53,506.0,0.495337840622881,0.327830251646072
54,508.0,0.4906344703558,0.31350855381756
55,510.0,0.485550401053709,0.298518074983872
56,512.0,0.480155839990299,0.282145991374841
57,514.0,0.474890288648386,0.265353087863615
58,516.0,0.469272805018893,0.246624211903073
59,518.0,0.463904178265677,0.227176095288481
60,520.0,0.458355691807931,0.206194415975926
61,522.0,0.452556335902331,0.184110741711581
62,524.0,0.446662964289372,0.163066165147844
63,526.0,0.440120321576786,0.141939631374076
64,528.0,0.433118555691503,0.123165934265764
65,530.0,0.424763156010526,0.104824310493081
66,532.0,0.41623140521288,0.089386648061819
67,534.0,0.405551881384857,0.0758369417328261
68,536.0,0.39363406465696,0.065018042719604
69,538.0,0.379876132016948,0.0557897365697789
70,540.0,0.364745220938908,0.0485611973984818
71,542.0,0.347191669442974,0.0425468125510566
72,544.0,0.328025018943095,0.0380053881663791
73,546.0,0.308435359351208,0.0346189242320475
74,548.0,0.286974290205837,0.0320418546918516
75,550.0,0.265598600047267,0.0301663616251724
76,552.0,0.242552072456894,0.0288147444502365
77,554.0,0.219601400982079,0.0279445103195191
78,556.0,0.1983839052703,0.0275627197399725
79,558.0,0.177362004425338,0.027461825506441
80,560.0,0.1572361187731,0.0277321017650643
81,562.0,0.139189040806209,0.0282804105041554
82,564.0,0.123896613642051,0.0290430608148018
83,566.0,0.110195389915847,0.0299857051720378
84,568.0,0.098634965742236,0.0311412692394726
85,570.0,0.0889729214583182,0.0323637334537139
86,572.0,0.0810376618684006,0.0337579959327408
87,574.0,0.074986779726891,0.0350472584645518
88,576.0,0.0699492845806404,0.0364194389676043
89,578.0,0.0658945762803576,0.0377263612538486
90,580.0,0.0629038672356125,0.0390265002671889
91,582.0,0.0606334588660934,0.0403273801624467
92,584.0,0.0591071568131652,0.0416224670862552
93,586.0,0.0581344378738073,0.0429509298272015
94,588.0,0.0576593794194935,0.0441968561358241
95,590.0,0.057672207090476,0.0455783949985806
96,592.0,0.0581587188848891,0.0470353991193496
97,594.0,0.0591574218210718,0.0486449356362416
98,596.0,0.0607315489627226,0.0505452658569113
99,598.0,0.062909747942406,0.0527242292576246
100,600.0,0.0655690031006956,0.0551724741102315
101,602.0,0.0688904918617484,0.0580139185836464
102,604.0,0.0728957653960741,0.0613763110023478
103,606.0,0.0776387627802254,0.0650640318352826
104,608.0,0.0831270770119477,0.0692713375990699
105,610.0,0.0891807225876492,0.0738865466993315
106,612.0,0.0958505591747844,0.079026476882229
107,614.0,0.102878052266395,0.0843119811829215
108,616.0,0.110423703512445,0.0898878285223008
109,618.0,0.117649734916054,0.0953514898303518
110,620.0,0.124748247777657,0.100616663626582
111,622.0,0.131225701382791,0.105525660451013
112,624.0,0.136948918589532,0.109538174370919
113,626.0,0.141618175885699,0.113012044855542
114,628.0,0.14470947659991,0.115183119225499
115,630.0,0.14595564950235,0.116017010999807
116,632.0,0.145100322727422,0.115373010753816
117,634.0,0.142176706038082,0.113190362008102
118,636.0,0.137256181728557,0.109555961363974
119,638.0,0.130292158806329,0.104378349447718
120,640.0,0.122004037680225,0.0982707969290721
121,642.0,0.112284858471521,0.0910704807845887
122,644.0,0.102021863254482,0.0835724419468382
123,646.0,0.0914711606654518,0.0757986755061669
124,648.0,0.0806938265284918,0.0677668800496748
125,650.0,0.0707425938937656,0.0604006647262011
126,652.0,0.0611931758625954,0.0533398281692576
127,654.0,0.0526382016330627,0.0469938700270767
128,656.0,0.0446441298001416,0.0409550845281915
129,658.0,0.0375294542557526,0.0356412687219993
130,660.0,0.0315404145354515,0.0311739351717739
131,662.0,0.0263431538585067,0.0272458854155586
132,664.0,0.0218483743041588,0.0238457481797411
133,666.0,0.0181186589847923,0.0210619093817412
134,668.0,0.0150049124501105,0.0186791975280705
135,670.0,0.0125006069505088,0.0168185360700225
136,672.0,0.0103704218523919,0.0152211384770443
137,674.0,0.0085981379862555,0.0138284498255678
138,676.0,0.0071637179409652,0.0127750638612069
139,678.0,0.0059973245998601,0.0118767700891846
140,680.0,0.0050746734133853,0.0110842172023004
141,682.0,0.0042161811608584,0.0104392732255471
142,684.0,0.0036111779618127,0.0099335704162331
143,686.0,0.0030635974263344,0.0095392074399478
144,688.0,0.0026052720280597,0.0091343321302555
145,690.0,0.0022330098920261,0.0088741701360311
146,692.0,0.0019377330031089,0.0085951343619499
147,694.0,0.0017388498829142,0.0084056092563704
148,696.0,0.0014978758862886,0.0083286230293728
149,698.0,0.0013104875472019,0.0080559454581984
150,700.0,0.0011029248426828,0.0076945292645379
151,702.0,0.0009105266831158,0.0077119054689639
152,704.0,0.0009230887563996,0.0073766762711142
153,706.0,0.000757037237422,0.0074005739774527
154,708.0,0.0008398516867383,0.0072411846170709
155,710.0,0.0007396034782227,0.007211148354767
156,712.0,0.0007033026224381,0.0070895209560895
157,714.0,0.0007240062778135,0.0071659231539543
158,716.0,0.0005879230425882,0.0070450907367827
159,718.0,0.0006552772992052,0.0071042761491688
160,720.0,0.0005573798826847,0.0070446855409615
